Pcell	transmission
150.852	46636.3
150.802	46612.6
150.818	46589
150.814	46565.5
150.804	46542.1
150.805	46518.8
150.815	46495.4
150.794	46472.2
150.806	46449
150.817	46425.8
150.794	46402.6
150.794	46379.5
150.817	46356.2
150.794	46333
150.812	46309.7
150.809	46286.4
150.817	46262.9
150.794	46239.5
150.811	46216
150.819	46192.4
150.818	46168.7
150.793	46145
150.793	46121.4
150.816	46097.7
150.813	46074
150.795	46050.2
150.809	46026.4
150.795	46002.7
150.795	45979
150.813	45955.2
150.794	45931.4
150.796	45907.6
150.811	45883.8
150.794	45860
150.795	45836.1
150.804	45812.3
150.795	45788.4
150.792	45764.6
150.8	45740.7
150.793	45716.9
150.793	45693.1
150.796	45669.2
150.794	45645.3
150.792	45621.5
150.796	45597.6
150.811	45573.5
150.794	45549.5
150.793	45525.5
150.796	45501.5
150.801	45477.4
150.791	45453.4
150.796	45429.3
150.796	45405.2
150.794	45381.2
150.798	45357
150.793	45332.9
150.796	45308.8
150.8	45284.7
150.792	45260.5
150.795	45236.4
150.793	45212.2
150.794	45188.1
150.794	45163.9
150.793	45139.8
150.792	45115.6
150.794	45091.5
150.793	45067.3
150.793	45043.1
150.794	45018.9
150.791	44994.8
150.791	44970.6
150.775	44946.5
150.789	44922.5
150.78	44898.5
150.785	44874.5
150.778	44850.5
150.794	44826.5
150.795	44802.4
150.797	44778.3
150.799	44754
150.797	44729.8
150.795	44705.5
150.808	44681.1
150.795	44656.7
150.797	44632.3
150.808	44607.8
150.795	44583.3
150.794	44558.8
150.802	44534.4
150.794	44509.9
150.78	44485.6
150.788	44461.3
150.794	44437
150.798	44412.6
150.796	44388.3
150.791	44364
150.801	44339.6
150.808	44315.2
150.804	44290.7
150.793	44266.2
150.793	44241.8
150.793	44217.4
150.794	44193
150.798	44168.6
150.802	44144.2
150.795	44119.8
150.794	44095.4
150.79	44071.1
150.797	44046.8
150.793	44022.4
150.794	43998.1
150.788	43973.8
150.783	43949.7
150.789	43925.5
150.789	43901.3
150.775	43877.2
150.773	43853.3
150.776	43829.4
150.772	43805.5
150.774	43781.7
150.77	43758
150.764	43734.3
150.78	43710.6
150.76	43686.9
150.77	43663.3
150.771	43639.7
150.766	43616
150.756	43592.5
150.774	43568.8
150.76	43545.3
150.755	43521.7
150.755	43498.2
150.762	43474.7
150.772	43451.1
150.754	43427.5
150.747	43404
150.757	43380.5
150.757	43356.9
150.748	43333.4
150.748	43309.9
150.745	43286.5
150.743	43263
150.74	43239.7
150.742	43216.3
150.743	43192.9
150.74	43169.5
150.74	43146.1
150.741	43122.7
150.749	43099.2
150.738	43075.7
150.734	43052.2
150.73	43028.8
150.738	43005.4
150.737	42981.9
150.732	42958.4
150.734	42934.9
150.732	42911.4
150.731	42887.9
150.731	42864.4
150.733	42840.8
150.732	42817.3
150.731	42793.7
150.732	42770
150.731	42746.4
150.73	42722.7
150.732	42699
150.73	42675.3
150.729	42651.6
150.73	42627.8
150.732	42604
150.731	42580.2
150.731	42556.3
150.731	42532.5
150.732	42508.5
150.734	42484.6
150.732	42460.6
150.731	42436.6
150.731	42412.6
150.732	42388.6
150.718	42364.6
150.733	42340.6
150.731	42316.6
150.716	42292.6
150.733	42268.6
150.732	42244.5
150.728	42220.5
150.726	42196.4
150.694	42172.6
150.728	42148.7
150.73	42124.7
150.704	42100.9
150.724	42077
150.729	42053.1
150.733	42029.1
150.731	42005
150.731	41980.8
150.712	41956.8
150.732	41932.7
150.731	41908.5
150.731	41884.3
150.732	41860
150.726	41835.8
150.73	41811.5
150.731	41787.2
150.732	41762.9
150.729	41738.6
150.73	41714.2
150.73	41689.9
150.732	41665.5
150.731	41641.2
150.731	41616.8
150.732	41592.4
150.731	41568
150.732	41543.6
150.731	41519.3
150.732	41494.9
150.73	41470.5
150.731	41446.1
150.732	41421.7
150.731	41397.4
150.732	41373
150.732	41348.6
150.732	41324.2
150.732	41299.9
150.732	41275.5
150.732	41251.1
150.733	41226.7
150.733	41202.4
150.732	41178
150.73	41153.6
150.731	41129.3
150.732	41105
150.731	41080.6
150.731	41056.3
150.729	41032
150.733	41007.7
150.731	40983.4
150.704	40959.2
150.731	40935.1
150.732	40910.9
150.731	40886.7
150.731	40862.4
150.732	40838.2
150.732	40813.9
150.734	40789.6
150.733	40765.2
150.731	40740.9
150.733	40716.6
150.734	40692.2
150.733	40667.9
150.735	40643.5
150.705	40619.3
150.704	40595.3
150.733	40571.2
150.734	40547
150.73	40522.8
150.733	40498.6
150.712	40474.5
150.724	40450.4
150.704	40426.4
150.711	40402.5
150.719	40378.5
150.72	40354.6
150.714	40330.7
150.699	40306.9
150.697	40283.2
150.709	40259.5
150.701	40235.8
150.693	40212.3
150.7	40188.7
150.701	40165.2
150.706	40141.6
150.701	40118
150.701	40094.4
150.691	40070.9
150.694	40047.3
150.695	40023.8
150.694	40000.3
150.696	39976.7
150.694	39953.2
150.69	39929.6
150.69	39906.1
150.683	39882.6
150.691	39859.1
150.69	39835.5
150.694	39811.9
150.7	39788.2
150.691	39764.5
150.683	39740.9
150.712	39717
150.687	39693.2
150.685	39669.4
150.684	39645.7
150.686	39621.9
150.68	39598.2
150.684	39574.5
150.68	39550.8
150.68	39527.1
150.682	39503.4
150.682	39479.7
150.679	39456
150.673	39432.4
150.675	39408.7
150.672	39385.1
150.666	39361.5
150.673	39337.9
150.673	39314.3
150.667	39290.7
150.669	39267.2
150.675	39243.5
150.673	39219.9
150.657	39196.3
150.67	39172.7
150.669	39149.1
150.66	39125.5
150.668	39101.9
150.671	39078.2
150.663	39054.5
150.671	39030.8
150.652	39007.2
150.652	38983.6
150.681	38959.8
150.647	38936.2
150.655	38912.6
150.657	38889
150.669	38865.3
150.635	38841.7
150.668	38818.1
150.631	38794.6
150.635	38771.2
150.671	38747.6
150.64	38724.1
150.671	38700.4
150.672	38676.5
150.631	38652.9
150.635	38629.3
150.669	38605.5
150.67	38581.7
150.638	38557.9
150.666	38534
150.632	38510.2
150.631	38486.5
150.672	38462.7
150.669	38438.7
150.632	38414.8
150.67	38390.8
150.631	38367
150.633	38343.2
150.661	38319.3
150.662	38295.3
150.632	38271.4
150.63	38247.7
150.63	38224
150.666	38200.1
150.632	38176.3
150.649	38152.4
150.665	38128.4
150.629	38104.5
150.634	38080.7
150.638	38056.8
150.661	38032.8
150.63	38009
150.644	37985.1
150.669	37960.9
150.668	37936.7
150.67	37912.3
150.669	37887.8
150.633	37863.4
150.631	37839.3
150.669	37814.9
150.635	37790.7
150.669	37766.3
150.632	37742.1
150.669	37717.8
150.629	37693.6
150.671	37669.3
150.633	37645.1
150.652	37620.8
150.67	37596.5
150.629	37572.3
150.631	37548.2
150.631	37524.2
150.628	37500.3
150.63	37476.5
150.642	37452.7
150.669	37428.6
150.631	37404.6
150.669	37380.4
150.669	37356.1
150.634	37331.8
150.662	37307.5
150.631	37283.3
150.63	37259.2
150.669	37234.9
150.63	37210.8
150.63	37186.8
150.632	37162.8
150.645	37138.7
150.631	37114.8
150.632	37090.9
150.637	37066.9
150.631	37043
150.63	37019.2
150.629	36995.4
150.631	36971.5
150.629	36947.7
150.629	36923.9
150.63	36900.1
150.631	36876.3
150.631	36852.5
150.63	36828.6
150.629	36804.8
150.63	36780.9
150.629	36757.1
150.623	36733.2
150.624	36709.4
150.614	36685.7
150.619	36662
150.609	36638.3
150.62	36614.7
150.628	36590.9
150.62	36567.2
150.621	36543.5
150.618	36519.7
150.621	36496
150.623	36472.2
150.622	36448.3
150.629	36424.4
150.624	36400.5
150.628	36376.5
150.614	36352.6
150.619	36328.6
150.611	36304.8
150.62	36280.8
150.613	36257
150.611	36233.1
150.611	36209.3
150.615	36185.5
150.621	36161.6
150.611	36137.7
150.602	36114
150.618	36090.1
150.611	36066.3
150.581	36042.6
150.593	36019.1
150.607	35995.5
150.585	35972
150.583	35948.6
150.584	35925.3
150.591	35901.9
150.574	35878.7
150.576	35855.5
150.58	35832.4
150.571	35809.3
150.573	35786.3
150.568	35763.2
150.574	35740.2
150.576	35717.2
150.572	35694.1
150.571	35671
150.554	35648
150.562	35625
150.553	35602.1
150.548	35579.3
150.548	35556.4
150.568	35533.5
150.547	35510.6
150.567	35487.6
150.565	35464.5
150.548	35441.5
150.56	35418.3
150.551	35395.2
150.551	35372.1
150.551	35348.9
150.551	35325.7
150.549	35302.5
150.552	35279.3
150.546	35256
150.551	35232.7
150.549	35209.4
150.546	35186.1
150.536	35162.8
150.539	35139.5
150.53	35116.3
150.543	35093
150.526	35069.8
150.507	35046.8
150.528	35023.8
150.532	35000.7
150.503	34977.8
150.513	34954.9
150.509	34932
150.511	34909.2
150.511	34886.4
150.522	34863.5
150.538	34840.4
150.52	34817.2
150.517	34794
150.528	34770.8
150.525	34747.4
150.509	34724.1
150.509	34700.8
150.511	34677.6
150.516	34654.2
150.512	34630.9
150.506	34607.6
150.503	34584.3
150.506	34561
150.504	34537.7
150.506	34514.4
150.503	34491.1
150.496	34467.8
150.493	34444.5
150.5	34421.3
150.497	34398
150.501	34374.7
150.488	34351.4
150.493	34328.2
150.494	34304.9
150.488	34281.6
150.492	34258.3
150.49	34235
150.489	34211.7
150.493	34188.4
150.475	34165.1
150.48	34141.8
150.486	34118.6
150.479	34095.3
150.487	34072
150.488	34048.6
150.457	34025.4
150.459	34002.3
150.448	33979.3
150.486	33956.2
150.45	33933.2
150.445	33910.3
150.45	33887.5
150.453	33864.7
150.45	33841.9
150.489	33818.8
150.464	33795.7
150.485	33772.4
150.45	33749.1
150.451	33726
150.448	33702.8
150.489	33679.4
150.486	33655.8
150.448	33632.3
150.451	33608.8
150.451	33585.4
150.45	33562
150.463	33538.6
150.45	33515.2
150.45	33491.7
150.449	33468.3
150.447	33444.9
150.446	33421.6
150.437	33398.2
150.433	33375
150.429	33351.8
150.425	33328.8
150.423	33305.7
150.409	33282.9
150.395	33260.2
150.391	33237.7
150.387	33215.4
150.398	33193
150.386	33170.8
150.387	33148.7
150.381	33126.6
150.384	33104.5
150.386	33082.4
150.379	33060.3
150.387	33038.1
150.362	33016.1
150.387	32993.9
150.382	32971.7
150.377	32949.4
150.37	32927.1
150.364	32904.9
150.365	32882.6
150.363	32860.4
150.357	32838.1
150.346	32815.9
150.327	32793.9
150.333	32772
150.321	32750.2
150.312	32728.5
150.315	32706.9
150.313	32685.4
150.305	32663.9
150.293	32642.5
150.3	32621.2
150.298	32599.9
150.296	32578.5
150.262	32557.4
150.276	32536.3
150.274	32515.2
150.258	32494.2
150.257	32473.3
150.252	32452.4
150.241	32431.6
150.225	32411
150.226	32390.4
150.219	32370
150.214	32349.6
150.208	32329.2
150.202	32309
150.201	32288.7
150.2	32268.4
150.2	32248.1
150.2	32227.7
150.197	32207.3
150.186	32186.8
150.184	32166.4
150.163	32146
150.149	32125.7
150.141	32105.5
150.126	32085.6
150.121	32065.7
150.116	32046
150.116	32026.3
150.116	32006.6
150.117	31986.8
150.113	31967
150.103	31947.2
150.074	31927.6
150.068	31908
150.056	31888.6
150.043	31869.4
150.025	31850.4
150.016	31831.5
150.039	31812.6
150.025	31793.7
150.015	31774.8
150.003	31756
149.991	31737.3
149.997	31718.6
149.971	31699.9
149.969	31681.4
149.958	31662.8
149.936	31644.5
149.939	31626.2
149.929	31608
149.924	31589.8
149.927	31571.5
149.929	31553.2
149.91	31534.8
149.888	31516.5
149.87	31498.4
149.87	31480.4
149.867	31462.3
149.842	31444.4
149.866	31426.4
149.853	31408.4
149.827	31390.4
149.816	31372.5
149.805	31354.7
149.787	31337
149.761	31319.5
149.761	31302.2
149.763	31284.9
149.742	31267.8
149.74	31250.6
149.736	31233.5
149.716	31216.4
149.692	31199.6
149.7	31182.7
149.679	31165.9
149.679	31149.1
149.676	31132.3
149.658	31115.5
149.639	31098.8
149.619	31082.3
149.616	31065.8
149.617	31049.3
149.576	31033
149.576	31016.8
149.567	31000.6
149.559	30984.5
149.526	30968.6
149.507	30952.9
149.514	30937.2
149.491	30921.7
149.488	30906.2
149.458	30890.9
149.445	30875.7
149.439	30860.6
149.418	30845.6
149.386	30830.9
149.388	30816.3
149.371	30801.8
149.362	30787.3
149.337	30773
149.305	30759
149.303	30745.1
149.302	30731.2
149.273	30717.4
149.261	30703.7
149.226	30690.3
149.24	30676.8
149.214	30663.4
149.177	30650.3
149.152	30637.4
149.138	30624.7
149.137	30612
149.122	30599.5
149.092	30587
149.078	30574.8
149.072	30562.5
149.052	30550.3
149.014	30538.3
148.993	30526.5
148.954	30515
148.95	30503.8
148.94	30492.6
148.917	30481.5
148.881	30470.7
148.877	30459.9
148.839	30449.4
148.818	30439.1
148.805	30429
148.767	30419.1
148.764	30409.2
148.734	30399.6
148.704	30390.1
148.682	30380.9
148.679	30371.7
148.639	30362.6
148.615	30353.8
148.611	30345
148.568	30336.3
148.549	30327.9
148.548	30319.4
148.501	30311.1
148.48	30303
148.441	30295.1
148.427	30287.3
148.389	30279.8
148.371	30272.5
148.346	30265.4
148.323	30258.4
148.293	30251.5
148.261	30244.9
148.244	30238.4
148.222	30232
148.19	30225.8
148.147	30219.8
148.148	30213.9
148.119	30208
148.078	30202.4
148.07	30196.7
148.03	30191.3
147.995	30186
147.99	30180.8
147.95	30175.7
147.93	30170.7
147.91	30165.7
147.873	30160.8
147.833	30156.1
147.807	30151.7
147.8	30147.2
147.759	30142.8
147.712	30138.7
147.696	30134.8
147.678	30130.9
147.64	30127.1
147.631	30123.3
147.6	30119.6
147.559	30116
147.549	30112.4
147.51	30108.9
147.488	30105.4
147.445	30102.1
147.442	30098.7
147.406	30095.4
147.383	30092.1
147.363	30088.8
147.314	30085.6
147.298	30082.4
147.297	30079.1
147.251	30075.8
147.194	30072.7
147.174	30069.8
147.169	30066.8
147.121	30063.9
147.093	30061.2
147.066	30058.5
147.053	30055.9
147.015	30053.2
147.006	30050.5
146.982	30047.8
146.948	30045
146.924	30042.2
146.921	30039.2
146.877	30036.1
146.862	30033
146.835	30029.8
146.811	30026.6
146.763	30023.4
146.751	30020.2
146.723	30017
146.691	30013.8
146.679	30010.6
146.64	30007.4
146.62	30004.2
146.577	30001.1
146.579	29998
146.553	29994.7
146.507	29991.5
146.49	29988.4
146.471	29985.1
146.438	29981.9
146.427	29978.6
146.389	29975.3
146.355	29972.1
146.324	29969
146.32	29965.8
146.279	29962.7
146.239	29959.7
146.195	29956.9
146.193	29954.2
146.162	29951.5
146.127	29948.9
146.124	29946.2
146.072	29943.7
146.054	29941.2
146.012	29938.8
146.007	29936.4
145.984	29934
145.948	29931.6
145.926	29929.1
145.895	29926.7
145.858	29924.4
145.857	29922
145.806	29919.7
145.795	29917.4
145.756	29915.1
145.743	29912.8
145.701	29910.5
145.693	29908.2
145.669	29905.8
145.625	29903.5
145.57	29901.4
145.57	29899.4
145.562	29897.2
145.506	29895.2
145.489	29893.1
145.461	29891.2
145.44	29889.2
145.419	29887.1
145.414	29884.9
145.367	29882.7
145.322	29880.6
145.32	29878.4
145.285	29876.2
145.245	29874.2
145.25	29872
145.201	29869.8
145.171	29867.7
145.157	29865.6
145.125	29863.5
145.094	29861.5
145.069	29859.5
145.046	29857.4
145.004	29855.5
144.977	29853.7
144.945	29852
144.923	29850.4
144.88	29848.9
144.88	29847.4
144.857	29845.8
144.82	29844.2
144.798	29842.6
144.759	29841.1
144.735	29839.6
144.727	29838
144.687	29836.5
144.646	29835
144.626	29833.6
144.598	29832.3
144.555	29831
144.507	29830.1
144.503	29829.2
144.458	29828.4
144.445	29827.7
144.428	29827
144.385	29826.3
144.363	29825.6
144.332	29825
144.304	29824.5
144.3	29823.8
144.255	29823.1
144.212	29822.5
144.195	29822
144.178	29821.4
144.133	29820.9
144.107	29820.4
144.074	29820
144.046	29819.7
144.003	29819.5
143.986	29819.4
143.961	29819.3
143.925	29819.3
143.921	29819.1
143.868	29819.1
143.827	29819.2
143.82	29819.3
143.801	29819.4
143.752	29819.5
143.735	29819.6
143.714	29819.6
143.673	29819.7
143.631	29820
143.626	29820.2
143.587	29820.4
143.555	29820.6
143.548	29820.8
143.506	29821
143.486	29821.1
143.448	29821.3
143.427	29821.4
143.418	29821.4
143.362	29821.5
143.334	29821.6
143.299	29821.9
143.299	29822
143.278	29822
143.236	29821.9
143.195	29822
143.176	29822.1
143.14	29822.2
143.134	29822.2
143.121	29822.1
143.075	29821.9
143.038	29821.8
143.032	29821.6
142.997	29821.4
142.954	29821.2
142.946	29821
142.916	29820.8
142.89	29820.5
142.867	29820.2
142.854	29819.7
142.823	29819.2
142.765	29818.8
142.766	29818.3
142.746	29817.8
142.705	29817.2
142.704	29816.5
142.674	29815.7
142.639	29814.9
142.621	29814
142.6	29813
142.57	29811.9
142.534	29810.9
142.523	29809.8
142.503	29808.7
142.456	29807.6
142.435	29806.5
142.433	29805.2
142.394	29804
142.371	29802.7
142.332	29801.5
142.321	29800.3
142.28	29799.1
142.271	29797.9
142.252	29796.6
142.214	29795.3
142.196	29794
142.183	29792.5
142.153	29791
142.125	29789.5
142.087	29788.1
142.063	29786.8
142.053	29785.3
142.025	29783.9
141.997	29782.5
141.977	29781
141.958	29779.5
141.92	29778
141.933	29776.3
141.876	29774.6
141.875	29772.8
141.832	29771.1
141.815	29769.3
141.783	29767.5
141.758	29765.8
141.722	29764.2
141.713	29762.6
141.694	29760.9
141.684	29759.1
141.628	29757.4
141.63	29755.6
141.588	29753.9
141.588	29752.1
141.558	29750.2
141.535	29748.2
141.499	29746.3
141.473	29744.4
141.46	29742.5
141.443	29740.6
141.4	29738.7
141.376	29736.8
141.376	29734.9
141.338	29733
141.328	29730.9
141.298	29728.9
141.276	29726.9
141.273	29724.6
141.236	29722.4
141.211	29720.1
141.19	29717.8
141.19	29715.3
141.169	29712.7
141.146	29710
141.147	29707
141.132	29703.7
141.1	29700.3
141.079	29696.9
141.068	29693.2
141.051	29689.4
141.026	29685.5
141.025	29681.3
141.023	29676.9
141.013	29672.1
141.004	29667.1
140.998	29661.6
140.97	29656
140.95	29650.2
140.961	29644.1
140.938	29637.7
140.941	29631
140.903	29624.2
140.939	29617
140.919	29609.4
140.91	29601.4
140.901	29593.2
140.893	29584.7
140.887	29575.9
140.881	29566.8
140.868	29557.5
140.866	29547.9
140.878	29537.9
140.851	29527.7
140.879	29517
140.858	29506.1
140.838	29495
140.839	29483.6
140.838	29472
140.826	29460.3
140.828	29448.3
140.819	29436.1
140.822	29423.6
140.805	29411.1
140.797	29398.4
140.776	29385.7
140.794	29372.9
140.778	29359.9
140.766	29346.9
140.763	29333.8
140.766	29320.5
140.777	29307.1
140.776	29293.4
140.756	29279.6
140.752	29265.7
140.752	29251.6
140.752	29237.4
140.752	29223.1
140.752	29208.6
140.754	29193.9
140.744	29179.1
140.753	29164
140.716	29149.1
140.754	29133.8
140.751	29118.4
140.738	29102.8
140.73	29087.2
140.723	29071.5
140.717	29055.8
140.72	29040
140.71	29024.2
140.712	29008.4
140.708	28992.5
140.706	28976.6
140.702	28960.6
140.712	28944.6
140.694	28928.5
140.702	28912.3
140.703	28896
140.696	28879.7
140.703	28863.3
140.701	28846.7
140.691	28830.2
140.695	28813.5
140.695	28796.8
140.694	28780
140.683	28763.2
140.69	28746.3
140.695	28729.3
140.69	28712.3
140.696	28695.1
140.69	28677.9
140.677	28660.7
140.665	28643.6
140.679	28626.4
140.689	28609.1
140.688	28591.7
140.692	28574.2
140.677	28556.7
140.677	28539.2
140.691	28521.5
140.676	28503.9
140.691	28486.1
140.667	28468.4
140.675	28450.6
140.675	28432.9
140.657	28415.2
140.667	28397.6
140.651	28380
140.66	28362.5
140.654	28345
140.66	28327.4
140.693	28309.6
140.691	28291.6
140.65	28273.8
140.692	28255.7
140.662	28237.6
140.649	28219.7
140.692	28201.5
140.688	28183.2
140.652	28165.1
140.673	28146.8
140.653	28128.7
140.653	28110.6
140.65	28092.6
140.651	28074.6
140.687	28056.4
140.65	28038.3
140.669	28020.1
140.65	28002
140.649	27983.9
140.624	27966.1
140.643	27948.2
140.644	27930.4
140.643	27912.6
140.634	27894.8
140.637	27877.1
140.627	27859.4
140.628	27841.8
140.635	27824.1
140.62	27806.6
140.626	27789
140.613	27771.5
140.627	27754
140.609	27736.6
140.587	27719.4
140.595	27702.2
140.6	27685.1
140.611	27668
140.625	27650.7
140.627	27633.2
140.596	27615.8
140.627	27598.2
140.603	27580.7
140.586	27563.3
140.591	27545.9
140.586	27528.6
140.588	27511.3
140.599	27494
140.583	27476.7
140.588	27459.4
140.589	27442
140.606	27424.5
140.601	27406.9
140.59	27389.3
140.599	27371.7
140.582	27354
140.583	27336.4
140.578	27318.8
140.561	27301.3
140.576	27283.9
140.578	27266.4
140.569	27248.9
140.574	27231.4
140.568	27213.9
140.572	27196.4
140.575	27178.9
140.576	27161.2
140.572	27143.6
140.576	27125.9
140.573	27108.2
140.565	27090.4
140.545	27072.8
140.563	27055.2
140.56	27037.6
140.54	27020.1
140.526	27002.8
140.536	26985.5
140.53	26968.4
140.522	26951.3
140.525	26934.3
140.517	26917.4
140.511	26900.5
140.509	26883.8
140.507	26867.1
140.527	26850.3
140.515	26833.4
140.525	26816.5
140.5	26799.6
140.522	26782.7
140.506	26765.7
140.524	26748.6
140.508	26731.5
140.525	26714.2
140.502	26697
140.503	26679.8
140.502	26662.6
140.503	26645.4
140.503	26628.1
140.5	26610.8
140.473	26593.7
140.502	26576.4
140.501	26559.1
140.467	26542
140.504	26524.7
140.503	26507.3
140.51	26489.8
140.507	26472.1
140.501	26454.4
140.502	26436.6
140.502	26418.8
140.502	26400.9
140.5	26383
140.505	26365
140.502	26346.9
140.502	26328.8
140.497	26310.8
140.504	26292.6
140.494	26274.5
140.506	26256.3
140.498	26238
140.497	26219.8
140.502	26201.6
140.496	26183.3
140.495	26165.1
140.493	26146.8
140.484	26128.7
140.496	26110.5
140.48	26092.4
140.493	26074.2
140.495	26056.1
140.486	26037.9
140.493	26019.7
140.48	26001.6
140.481	25983.6
140.463	25965.6
140.492	25947.6
140.47	25929.7
140.474	25911.8
140.492	25893.7
140.471	25875.8
140.475	25857.8
140.465	25839.9
140.463	25822.1
140.471	25804.3
140.471	25786.4
140.465	25768.6
140.461	25750.8
140.477	25733
140.472	25715
140.46	25697.2
140.464	25679.3
140.461	25661.4
140.463	25643.5
140.454	25625.7
140.46	25607.9
140.462	25590
140.466	25572.1
140.459	25554.2
140.459	25536.2
140.462	25518.2
140.46	25500.3
140.46	25482.2
140.461	25464.2
140.461	25446.1
140.468	25428
140.462	25409.8
140.46	25391.6
140.456	25373.4
140.466	25355.2
140.455	25337
140.462	25318.8
140.462	25300.5
140.457	25282.2
140.456	25264
140.447	25245.8
140.445	25227.7
140.458	25209.5
140.441	25191.4
140.442	25173.4
140.437	25155.4
140.441	25137.5
140.419	25119.7
140.44	25101.9
140.41	25084.3
140.415	25066.8
140.44	25049.2
140.44	25031.5
140.438	25013.8
140.403	24996.2
140.407	24978.7
140.442	24961.1
140.408	24943.6
140.401	24926.2
140.404	24908.8
140.441	24891.3
140.401	24873.8
140.421	24856.2
140.401	24838.8
140.421	24821.2
140.403	24803.6
140.401	24786.1
140.401	24768.7
140.401	24751.2
140.41	24733.6
140.395	24716.1
140.399	24698.6
140.393	24681.1
140.395	24663.7
140.386	24646.2
140.38	24628.9
140.375	24611.6
140.373	24594.4
140.379	24577.1
140.378	24559.9
140.38	24542.7
140.369	24525.5
140.365	24508.3
140.357	24491.2
140.363	24474.2
140.38	24457
140.346	24439.9
140.357	24422.9
140.338	24405.9
140.357	24388.9
140.344	24372
140.343	24355.1
140.34	24338.2
140.335	24321.3
140.339	24304.5
140.336	24287.6
140.338	24270.7
140.334	24253.8
140.329	24236.9
140.34	24219.9
140.339	24202.8
140.315	24185.9
140.326	24168.9
140.315	24151.9
140.337	24134.8
140.336	24117.7
140.336	24100.4
140.315	24083.2
140.336	24065.8
140.315	24048.5
140.332	24031.1
140.333	24013.6
140.316	23996.1
140.327	23978.6
140.32	23961.1
140.315	23943.5
140.321	23926
140.316	23908.4
140.314	23890.8
140.313	23873.3
140.313	23855.7
140.307	23838.1
140.313	23820.5
140.308	23802.9
140.314	23785.3
140.3	23767.7
140.292	23750.2
140.286	23732.8
140.298	23715.4
140.303	23697.9
140.279	23680.5
140.275	23663.3
140.291	23646
140.286	23628.7
140.285	23611.4
140.285	23594.1
140.288	23576.8
140.287	23559.4
140.304	23541.8
140.3	23524.1
140.305	23506.3
140.299	23488.5
140.315	23470.4
140.29	23452.4
140.297	23434.4
140.312	23416.2
140.282	23398.1
140.285	23380.1
140.281	23362.1
140.289	23344.1
140.286	23326.1
140.305	23308
140.298	23289.9
140.278	23271.8
140.277	23253.8
140.292	23235.8
140.275	23217.8
140.28	23199.9
140.278	23181.9
140.282	23164
140.287	23146
140.278	23128
140.281	23110.1
140.277	23092.1
140.281	23074.1
140.28	23056.1
140.279	23038.1
140.272	23020.1
140.274	23002.2
140.276	22984.2
140.268	22966.2
140.275	22948.3
140.273	22930.3
140.277	22912.3
140.275	22894.3
140.273	22876.2
140.269	22858.2
140.27	22840.2
140.27	22822.2
140.272	22804.1
140.269	22786.1
140.27	22768
140.263	22750
140.268	22732
140.268	22714
140.268	22695.9
140.26	22677.9
140.266	22659.9
140.263	22641.9
140.256	22623.9
140.253	22606
140.256	22588.1
140.256	22570.2
140.252	22552.4
140.239	22534.6
140.251	22516.9
140.252	22499.1
140.269	22481.2
140.252	22463.3
140.234	22445.5
140.222	22427.9
140.252	22410.2
140.217	22392.7
140.253	22375.1
140.228	22357.5
140.25	22339.9
140.251	22322.1
140.215	22304.5
140.214	22287.1
140.212	22269.7
140.212	22252.4
140.217	22235.2
140.213	22217.9
140.227	22200.6
140.229	22183.2
140.223	22165.8
140.232	22148.2
140.211	22130.7
140.206	22113.3
140.21	22095.9
140.205	22078.5
140.207	22061.1
140.198	22043.8
140.209	22026.5
140.206	22009.1
140.204	21991.7
140.19	21974.4
140.201	21957
140.203	21939.7
140.194	21922.3
140.193	21904.9
140.192	21887.6
140.192	21870.2
140.172	21853
140.179	21835.8
140.168	21818.7
140.157	21801.7
140.155	21784.9
140.163	21768
140.163	21751.2
140.152	21734.4
140.141	21717.8
140.136	21701.2
140.145	21684.7
140.148	21668.1
140.152	21651.5
140.129	21634.9
140.135	21618.4
140.152	21601.7
140.15	21585
140.15	21568.1
140.125	21551.3
140.126	21534.6
140.125	21517.8
140.123	21501.1
140.15	21484.2
140.123	21467.3
140.127	21450.4
140.125	21433.5
140.127	21416.5
140.137	21399.4
140.126	21382.3
140.128	21365.2
140.128	21347.9
140.128	21330.6
140.123	21313.3
140.128	21296
140.105	21278.7
140.111	21261.5
140.106	21244.3
140.104	21227.1
140.09	21210.1
140.087	21193.1
140.08	21176.3
140.088	21159.5
140.086	21142.7
140.082	21125.9
140.086	21109.2
140.074	21092.4
140.068	21075.8
140.073	21059.1
140.088	21042.4
140.087	21025.5
140.062	21008.7
140.072	20991.9
140.071	20975.1
140.075	20958.2
140.088	20941.1
140.087	20924
140.074	20906.8
140.086	20889.4
140.079	20872.1
140.087	20854.6
140.075	20837.1
140.087	20819.5
140.087	20801.8
140.087	20784
140.069	20766.3
140.066	20748.6
140.065	20731
140.086	20713.2
140.085	20695.4
140.088	20677.5
140.068	20659.6
140.087	20641.6
140.086	20623.6
140.067	20605.6
140.086	20587.5
140.064	20569.6
140.086	20551.5
140.086	20533.4
140.085	20515.2
140.082	20497
140.083	20478.8
140.066	20460.6
140.065	20442.6
140.063	20424.6
140.069	20406.6
140.072	20388.6
140.063	20370.6
140.062	20352.7
140.075	20334.8
140.064	20316.8
140.053	20299
140.078	20281
140.086	20262.9
140.077	20244.8
140.063	20226.7
140.077	20208.6
140.075	20190.4
140.079	20172.1
140.063	20153.9
140.072	20135.7
140.064	20117.6
140.064	20099.4
140.063	20081.3
140.069	20063.2
140.071	20045.1
140.068	20026.9
140.065	20008.7
140.064	19990.6
140.032	19972.7
140.071	19954.7
140.062	19936.7
140.063	19918.7
140.051	19900.7
140.051	19882.8
140.047	19865
140.041	19847.2
140.03	19829.6
140.037	19812
140.025	19794.6
140.018	19777.3
140.02	19760.1
140.015	19743
140.008	19726
140.005	19709.1
140.001	19692.3
140.001	19675.6
139.998	19658.9
140.003	19642.2
139.985	19625.6
139.985	19609.1
140.002	19592.5
140.001	19575.9
140.001	19559.1
140.002	19542.3
139.976	19525.6
139.966	19509
139.968	19492.5
140.002	19475.8
139.977	19459.2
139.968	19442.5
139.965	19425.9
140.001	19409.1
139.961	19392.4
139.973	19375.6
139.962	19358.9
139.973	19342.1
139.975	19325.2
139.962	19308.3
139.965	19291.4
139.965	19274.5
139.973	19257.5
139.954	19240.5
139.963	19223.5
139.961	19206.4
139.944	19189.5
139.952	19172.5
139.956	19155.4
139.953	19138.4
139.944	19121.4
139.951	19104.3
139.94	19087.3
139.941	19070.2
139.945	19053.2
139.94	19036.1
139.928	19019.1
139.934	19002.2
139.906	18985.3
139.929	18968.5
139.939	18951.6
139.914	18934.7
139.898	18918
139.9	18901.4
139.9	18884.9
139.898	18868.4
139.9	18851.9
139.898	18835.4
139.901	18818.9
139.901	18802.4
139.877	18786
139.888	18769.5
139.882	18753.1
139.875	18736.8
139.875	18720.4
139.878	18704.1
139.864	18687.8
139.873	18671.4
139.894	18654.9
139.901	18638.2
139.876	18621.5
139.901	18604.5
139.873	18587.6
139.875	18570.7
139.886	18553.6
139.879	18536.6
139.881	18519.4
139.875	18502.3
139.881	18485
139.874	18467.8
139.877	18450.5
139.874	18433.2
139.874	18415.9
139.874	18398.5
139.873	18381.1
139.874	18363.7
139.866	18346.2
139.858	18328.9
139.874	18311.5
139.869	18294
139.873	18276.5
139.858	18259
139.873	18241.5
139.853	18224
139.873	18206.5
139.849	18189
139.868	18171.5
139.861	18153.9
139.848	18136.5
139.836	18119.1
139.856	18101.7
139.848	18084.4
139.843	18067
139.848	18049.7
139.835	18032.4
139.86	18015.1
139.834	17997.7
139.846	17980.4
139.832	17963.1
139.834	17945.8
139.844	17928.5
139.833	17911.2
139.83	17894
139.838	17876.7
139.832	17859.4
139.834	17842
139.824	17824.7
139.819	17807.5
139.833	17790.2
139.822	17773
139.824	17755.7
139.825	17738.4
139.82	17721.1
139.819	17703.8
139.822	17686.5
139.821	17669.2
139.822	17651.8
139.82	17634.4
139.83	17617
139.813	17599.5
139.825	17582
139.814	17564.6
139.809	17547.1
139.818	17529.6
139.813	17512.1
139.81	17494.7
139.824	17477.1
139.835	17459.4
139.81	17441.7
139.806	17424
139.809	17406.4
139.831	17388.7
139.808	17370.9
139.807	17353.2
139.798	17335.6
139.81	17318
139.78	17300.6
139.808	17283.1
139.81	17265.5
139.79	17248
139.81	17230.5
139.806	17212.9
139.799	17195.3
139.798	17177.7
139.804	17160.1
139.789	17142.6
139.787	17125.1
139.795	17107.6
139.771	17090.2
139.777	17072.9
139.773	17055.7
139.779	17038.5
139.772	17021.3
139.763	17004.3
139.767	16987.2
139.767	16970.2
139.757	16953.3
139.749	16936.4
139.752	16919.6
139.753	16902.9
139.746	16886.1
139.747	16869.4
139.732	16852.8
139.746	16836.2
139.742	16819.6
139.738	16803
139.749	16786.2
139.726	16769.6
139.722	16753.1
139.716	16736.6
139.712	16720.2
139.709	16703.9
139.709	16687.6
139.708	16671.3
139.711	16655
139.707	16638.7
139.695	16622.5
139.708	16606.2
139.692	16590
139.706	16573.6
139.687	16557.4
139.709	16540.9
139.707	16524.4
139.701	16507.9
139.706	16491.2
139.698	16474.5
139.686	16457.8
139.696	16441.1
139.688	16424.4
139.693	16407.6
139.684	16390.8
139.684	16374
139.684	16357.2
139.683	16340.4
139.666	16323.7
139.669	16307
139.667	16290.3
139.675	16273.6
139.657	16257
139.653	16240.4
139.653	16223.9
139.657	16207.4
139.647	16190.9
139.64	16174.5
139.648	16158.1
139.636	16141.7
139.631	16125.4
139.637	16109.1
139.628	16092.9
139.624	16076.7
139.622	16060.5
139.625	16044.3
139.622	16028
139.613	16011.9
139.623	15995.6
139.624	15979.3
139.593	15963.1
139.625	15946.8
139.624	15930.4
139.626	15913.9
139.589	15897.5
139.624	15881
139.624	15864.3
139.582	15847.9
139.585	15831.5
139.583	15815.1
139.582	15798.9
139.61	15782.5
139.584	15766.1
139.584	15749.7
139.582	15733.3
139.583	15716.9
139.584	15700.4
139.601	15683.8
139.582	15667.2
139.595	15650.5
139.585	15633.7
139.601	15616.8
139.585	15599.8
139.585	15582.9
139.605	15565.7
139.584	15548.5
139.582	15531.4
139.612	15514
139.584	15496.6
139.606	15479.1
139.612	15461.4
139.585	15443.8
139.611	15426
139.583	15408.3
139.593	15390.5
139.595	15372.8
139.584	15355.1
139.585	15337.4
139.581	15319.7
139.586	15302.1
139.584	15284.4
139.584	15266.8
139.576	15249.2
139.58	15231.6
139.584	15214
139.582	15196.4
139.578	15178.8
139.579	15161.3
139.574	15143.7
139.575	15126.1
139.571	15108.6
139.57	15091.1
139.57	15073.6
139.573	15056.2
139.576	15038.6
139.571	15021.1
139.568	15003.6
139.561	14986.1
139.562	14968.7
139.577	14951.2
139.564	14933.7
139.561	14916.2
139.562	14898.8
139.56	14881.4
139.56	14863.9
139.561	14846.5
139.556	14829.1
139.535	14811.8
139.56	14794.5
139.562	14777.1
139.563	14759.7
139.563	14742.2
139.521	14724.9
139.546	14707.6
139.561	14690.3
139.523	14673.1
139.535	14656
139.54	14638.8
139.528	14621.7
139.518	14604.8
139.52	14587.9
139.517	14571.1
139.521	14554.3
139.508	14537.6
139.506	14520.9
139.513	14504.3
139.505	14487.7
139.507	14471.1
139.505	14454.5
139.495	14437.9
139.484	14421.5
139.497	14405.1
139.496	14388.6
139.476	14372.2
139.477	14355.9
139.461	14339.8
139.469	14323.7
139.48	14307.5
139.46	14291.4
139.459	14275.4
139.456	14259.4
139.46	14243.3
139.46	14227.3
139.456	14211.3
139.46	14195.1
139.459	14179
139.445	14162.8
139.452	14146.7
139.461	14130.4
139.437	14114.1
139.459	14097.8
139.436	14081.5
139.46	14065
139.449	14048.5
139.436	14032.1
139.436	14015.6
139.436	13999.1
139.442	13982.6
139.437	13966
139.436	13949.4
139.425	13932.8
139.43	13916.2
139.416	13899.7
139.418	13883.2
139.421	13866.7
139.402	13850.3
139.403	13833.9
139.416	13817.6
139.402	13801.2
139.405	13784.8
139.396	13768.5
139.397	13752.2
139.393	13735.9
139.394	13719.6
139.396	13703.3
139.38	13687
139.377	13670.8
139.374	13654.7
139.374	13638.6
139.378	13622.4
139.374	13606.2
139.375	13590
139.373	13573.8
139.375	13557.5
139.376	13541.2
139.359	13524.9
139.352	13508.7
139.373	13492.4
139.376	13475.9
139.374	13459.4
139.373	13442.7
139.372	13426
139.374	13409.3
139.335	13392.7
139.334	13376.2
139.371	13359.6
139.366	13342.9
139.367	13326.1
139.333	13309.4
139.348	13292.7
139.333	13276.1
139.36	13259.4
139.358	13242.6
139.371	13225.6
139.363	13208.5
139.371	13191.2
139.359	13174
139.334	13156.8
139.352	13139.6
139.333	13122.6
139.368	13105.3
139.349	13088.1
139.352	13070.8
139.352	13053.4
139.331	13036.2
139.333	13019.1
139.334	13002
139.331	12984.9
139.325	12967.9
139.334	12950.9
139.333	12933.9
139.328	12916.9
139.33	12899.9
139.326	12882.8
139.318	12865.9
139.317	12849
139.314	12832.1
139.311	12815.3
139.3	12798.6
139.316	12781.8
139.315	12765
139.304	12748.3
139.294	12731.6
139.313	12714.8
139.307	12698.1
139.31	12681.2
139.295	12664.5
139.289	12647.8
139.311	12630.9
139.295	12614.1
139.303	12597.3
139.304	12580.4
139.284	12563.5
139.294	12546.6
139.29	12529.8
139.303	12512.8
139.289	12495.9
139.277	12479
139.301	12462
139.3	12445
139.283	12427.9
139.289	12410.9
139.281	12393.9
139.293	12376.8
139.291	12359.6
139.283	12342.5
139.272	12325.4
139.276	12308.4
139.275	12291.4
139.281	12274.3
139.281	12257.3
139.265	12240.2
139.272	12223.2
139.268	12206.2
139.272	12189.2
139.272	12172.2
139.27	12155.1
139.281	12138
139.244	12121
139.261	12104
139.255	12087.1
139.256	12070.2
139.248	12053.4
139.256	12036.5
139.243	12019.7
139.246	12002.9
139.241	11986.2
139.219	11969.6
139.218	11953.2
139.214	11936.9
139.22	11920.6
139.219	11904.4
139.239	11888
139.214	11871.7
139.202	11855.5
139.204	11839.4
139.2	11823.3
139.202	11807.2
139.194	11791.2
139.195	11775.2
139.203	11759.1
139.188	11743.1
139.187	11727.1
139.185	11711.1
139.185	11695.1
139.19	11679
139.205	11662.8
139.183	11646.6
139.181	11630.4
139.173	11614.2
139.182	11598
139.182	11581.7
139.183	11565.4
139.183	11548.9
139.154	11532.7
139.183	11516.3
139.145	11500.1
139.144	11483.9
139.168	11467.7
139.143	11451.6
139.148	11435.5
139.147	11419.5
139.144	11403.4
139.142	11387.3
139.132	11371.3
139.128	11355.4
139.138	11339.4
139.14	11323.3
139.137	11307.2
139.132	11291.1
139.131	11274.9
139.13	11258.8
139.136	11242.5
139.124	11226.2
139.113	11210
139.116	11193.8
139.112	11177.7
139.095	11161.6
139.12	11145.5
139.095	11129.4
139.092	11113.4
139.091	11097.5
139.094	11081.5
139.083	11065.6
139.079	11049.8
139.083	11034
139.083	11018.1
139.082	11002.2
139.081	10986.3
139.07	10970.4
139.081	10954.5
139.071	10938.5
139.061	10922.6
139.079	10906.6
139.08	10890.5
139.058	10874.4
139.082	10858.2
139.081	10841.8
139.065	10825.5
139.061	10809.2
139.077	10792.7
139.099	10776
139.064	10759.3
139.065	10742.6
139.081	10725.8
139.079	10708.9
139.058	10692.1
139.056	10675.3
139.074	10658.4
139.058	10641.6
139.075	10624.6
139.066	10607.6
139.081	10590.5
139.078	10573.3
139.065	10556.1
139.072	10538.8
139.066	10521.5
139.066	10504.3
139.058	10487
139.066	10469.8
139.064	10452.5
139.057	10435.3
139.053	10418.1
139.054	10400.9
139.055	10383.8
139.039	10366.7
139.05	10349.7
139.046	10332.7
139.038	10315.7
139.042	10298.8
139.038	10281.9
139.021	10265.2
139.034	10248.4
139.031	10231.7
139.026	10215
139.037	10198.3
139.039	10181.5
139.024	10164.7
139.022	10148
139.057	10131.1
139.025	10114.2
139.02	10097.3
139.027	10080.4
139.021	10063.6
139.017	10046.8
139.02	10029.9
139.013	10013.2
139.019	9996.37
139.02	9979.54
139.018	9962.69
139.019	9945.81
139.02	9928.89
139.004	9912.04
139.021	9895.11
139.02	9878.12
139.008	9861.16
139.011	9844.2
139.02	9827.15
139.017	9810.06
139.019	9792.91
139.018	9775.72
139.01	9758.55
138.998	9741.45
139.005	9724.38
139.008	9707.28
139	9690.21
139.002	9673.16
138.981	9656.26
139	9639.32
138.998	9622.38
138.989	9605.48
138.978	9588.69
138.977	9571.98
138.968	9555.39
138.961	9538.93
138.966	9522.52
138.961	9506.19
138.955	9489.95
138.962	9473.71
138.949	9457.56
138.946	9441.48
138.948	9425.42
138.938	9409.45
138.949	9393.43
138.937	9377.47
138.937	9361.52
138.939	9345.55
138.938	9329.56
138.916	9313.69
138.92	9297.87
138.914	9282.11
138.944	9266.16
138.902	9250.37
138.904	9234.64
138.939	9218.7
138.938	9202.59
138.9	9186.61
138.918	9170.56
138.938	9154.32
138.926	9137.99
138.913	9121.67
138.91	9105.36
138.909	9089.04
138.905	9072.74
138.893	9056.52
138.892	9040.35
138.897	9024.18
138.881	9008.11
138.888	8992.04
138.881	8976.01
138.884	8959.98
138.866	8944.07
138.867	8928.21
138.861	8912.43
138.854	8896.74
138.851	8881.12
138.848	8865.56
138.85	8850.02
138.836	8834.56
138.841	8819.13
138.835	8803.72
138.845	8788.26
138.838	8772.78
138.847	8757.19
138.836	8741.58
138.816	8726.08
138.836	8710.48
138.837	8694.8
138.834	8679.04
138.826	8663.27
138.827	8647.46
138.827	8631.59
138.831	8615.63
138.827	8599.62
138.812	8583.66
138.824	8567.62
138.812	8551.59
138.81	8535.58
138.814	8519.52
138.816	8503.41
138.814	8487.25
138.812	8471.05
138.795	8454.92
138.795	8438.83
138.803	8422.7
138.793	8406.61
138.779	8390.61
138.805	8374.49
138.787	8358.4
138.799	8342.22
138.797	8325.98
138.774	8309.84
138.799	8293.57
138.769	8277.42
138.774	8261.3
138.78	8245.14
138.773	8229
138.771	8212.86
138.772	8196.71
138.761	8180.61
138.764	8164.51
138.764	8148.39
138.763	8132.26
138.755	8116.16
138.766	8099.99
138.759	8083.81
138.761	8067.58
138.771	8051.23
138.755	8034.89
138.765	8018.47
138.755	8002.04
138.759	7985.57
138.758	7969.06
138.754	7952.54
138.755	7935.97
138.733	7919.54
138.755	7903.02
138.775	7886.29
138.755	7869.55
138.754	7852.76
138.754	7835.95
138.755	7819.09
138.754	7802.19
138.753	7785.27
138.754	7768.31
138.763	7751.25
138.753	7734.17
138.755	7717.06
138.755	7699.92
138.754	7682.76
138.756	7665.55
138.752	7648.34
138.751	7631.14
138.718	7614.16
138.749	7597.13
138.743	7580.1
138.724	7563.22
138.746	7546.26
138.726	7529.4
138.713	7512.68
138.727	7495.98
138.723	7479.32
138.717	7462.72
138.715	7446.18
138.711	7429.69
138.707	7413.27
138.711	7396.86
138.702	7380.51
138.7	7364.22
138.714	7347.86
138.707	7331.48
138.696	7315.15
138.698	7298.83
138.69	7282.57
138.689	7266.35
138.691	7250.13
138.691	7233.9
138.675	7217.77
138.692	7201.57
138.66	7185.54
138.656	7169.65
138.655	7153.86
138.653	7138.15
138.654	7122.48
138.654	7106.82
138.655	7091.16
138.642	7075.56
138.652	7059.93
138.628	7044.42
138.627	7028.98
138.645	7013.46
138.633	6997.95
138.629	6982.44
138.633	6966.9
138.631	6951.32
138.634	6935.67
138.629	6919.98
138.61	6904.38
138.611	6888.81
138.601	6873.32
138.601	6857.87
138.602	6842.43
138.591	6827.07
138.591	6811.73
138.59	6796.41
138.581	6781.14
138.589	6765.83
138.574	6750.58
138.576	6735.33
138.575	6720.08
138.567	6704.86
138.583	6689.53
138.568	6674.19
138.566	6658.84
138.568	6643.45
138.528	6628.28
138.553	6613.09
138.557	6597.83
138.568	6582.41
138.55	6566.99
138.552	6551.52
138.548	6536.02
138.528	6520.62
138.525	6505.3
138.525	6490.01
138.529	6474.71
138.514	6459.48
138.508	6444.32
138.511	6429.18
138.504	6414.08
138.502	6399.01
138.502	6383.93
138.501	6368.83
138.502	6353.7
138.5	6338.51
138.476	6323.44
138.499	6308.27
138.496	6293.03
138.476	6277.84
138.46	6262.78
138.463	6247.78
138.463	6232.81
138.466	6217.81
138.453	6202.88
138.459	6187.91
138.448	6172.98
138.439	6158.1
138.44	6143.25
138.449	6128.32
138.443	6113.35
138.441	6098.35
138.438	6083.31
138.438	6068.22
138.419	6053.2
138.419	6038.21
138.432	6023.12
138.405	6008.14
138.398	5993.25
138.402	5978.39
138.4	5963.54
138.425	5948.49
138.39	5933.53
138.384	5918.64
138.413	5903.57
138.398	5888.46
138.4	5873.27
138.401	5857.98
138.401	5842.61
138.4	5827.14
138.393	5811.63
138.402	5796.01
138.388	5780.37
138.389	5764.7
138.384	5749.02
138.375	5733.37
138.379	5717.7
138.37	5702.06
138.359	5686.51
138.353	5671.05
138.34	5655.73
138.338	5640.53
138.338	5625.39
138.338	5610.29
138.329	5595.26
138.329	5580.26
138.33	5565.26
138.325	5550.27
138.318	5535.32
138.314	5520.4
138.316	5505.47
138.32	5490.48
138.313	5475.47
138.314	5460.41
138.314	5445.29
138.315	5430.1
138.275	5415.11
138.282	5400.19
138.314	5385.08
138.313	5369.83
138.306	5354.48
138.274	5339.25
138.28	5324.06
138.287	5308.83
138.276	5293.62
138.274	5278.42
138.258	5263.32
138.262	5248.24
138.255	5233.23
138.263	5218.17
138.251	5203.15
138.252	5188.12
138.252	5173.07
138.228	5158.15
138.229	5143.3
138.217	5128.56
138.221	5113.86
138.213	5099.23
138.21	5084.65
138.21	5070.07
138.211	5055.47
138.211	5040.83
138.208	5026.15
138.211	5011.39
138.21	4996.56
138.202	4981.7
138.187	4966.89
138.192	4952.05
138.188	4937.21
138.164	4922.51
138.168	4907.85
138.155	4893.31
138.148	4878.88
138.144	4864.53
138.131	4850.32
138.144	4836.1
138.126	4821.97
138.148	4807.73
138.126	4793.52
138.126	4779.31
138.125	4765.08
138.124	4750.8
138.091	4736.7
138.099	4722.65
138.077	4708.75
138.074	4694.97
138.067	4681.3
138.062	4667.72
138.053	4654.24
138.04	4640.9
138.06	4627.48
138.023	4614.24
138.023	4601.1
138.023	4588
138.049	4574.7
138.027	4561.38
138	4548.19
138	4535.05
138	4521.92
137.997	4508.78
137.978	4495.72
137.967	4482.77
137.962	4469.9
137.96	4457.05
137.958	4444.21
137.956	4431.35
137.952	4418.45
137.944	4405.55
137.941	4392.61
137.93	4379.7
137.928	4366.76
137.898	4353.98
137.897	4341.29
137.884	4328.71
137.879	4316.22
137.851	4303.95
137.859	4291.75
137.869	4279.49
137.872	4267.12
137.857	4254.73
137.844	4242.36
137.822	4230.11
137.816	4217.96
137.813	4205.85
137.809	4193.77
137.809	4181.66
137.81	4169.47
137.77	4157.45
137.771	4145.51
137.768	4133.6
137.762	4121.71
137.746	4109.91
137.747	4098.11
137.718	4086.48
137.705	4075
137.696	4063.66
137.704	4052.33
137.711	4040.9
137.687	4029.52
137.684	4018.13
137.685	4006.67
137.668	3995.23
137.645	3983.91
137.656	3972.54
137.639	3961.21
137.629	3949.93
137.621	3938.67
137.605	3927.51
137.589	3916.46
137.584	3905.49
137.581	3894.54
137.581	3883.55
137.58	3872.49
137.559	3861.46
137.567	3850.34
137.559	3839.15
137.551	3827.91
137.542	3816.63
137.516	3805.44
137.497	3794.41
137.519	3783.28
137.497	3772.17
137.499	3761.02
137.499	3749.79
137.497	3738.43
137.477	3727.08
137.459	3715.79
137.458	3704.5
137.443	3693.27
137.438	3682.07
137.433	3670.86
137.434	3659.58
137.427	3648.26
137.411	3636.95
137.409	3625.61
137.388	3614.34
137.382	3603.12
137.371	3591.95
137.35	3580.93
137.374	3569.78
137.352	3558.66
137.341	3547.56
137.336	3536.47
137.32	3525.43
137.32	3514.39
137.31	3503.36
137.283	3492.47
137.271	3481.71
137.266	3471.04
137.256	3460.46
137.244	3449.96
137.266	3439.32
137.248	3428.64
137.247	3417.88
137.231	3407.11
137.21	3396.41
137.205	3385.74
137.192	3375.14
137.186	3364.56
137.174	3354.03
137.146	3343.69
137.142	3333.44
137.147	3323.18
137.145	3312.87
137.124	3302.6
137.123	3292.32
137.096	3282.14
137.078	3272.12
137.083	3262.1
137.059	3252.22
137.058	3242.37
137.057	3232.49
137.052	3222.56
137.029	3212.7
137.02	3202.88
137.008	3193.1
136.998	3183.38
136.997	3173.62
136.997	3163.79
136.996	3153.84
136.953	3144.02
136.936	3134.37
136.934	3124.79
136.904	3115.41
136.896	3106.18
136.896	3096.99
136.894	3087.78
136.881	3078.59
136.875	3069.38
136.837	3060.35
136.835	3051.4
136.818	3042.56
136.808	3033.81
136.814	3025.01
136.787	3016.29
136.759	3007.76
136.757	2999.3
136.748	2990.9
136.727	2982.61
136.716	2974.42
136.72	2966.18
136.708	2957.93
136.688	2949.72
136.675	2941.56
136.645	2933.56
136.634	2925.69
136.607	2918.03
136.625	2910.32
136.622	2902.52
136.6	2894.73
136.583	2886.97
136.56	2879.31
136.54	2871.79
136.521	2864.43
136.513	2857.16
136.519	2849.84
136.504	2842.5
136.488	2835.18
136.452	2828.03
136.459	2820.86
136.437	2813.77
136.436	2806.65
136.421	2799.53
136.399	2792.47
136.389	2785.43
136.373	2778.44
136.372	2771.4
136.352	2764.38
136.333	2757.42
136.32	2750.51
136.297	2743.7
136.274	2737.05
136.271	2730.45
136.262	2723.87
136.237	2717.38
136.213	2711.04
136.204	2704.79
136.186	2698.64
136.187	2692.47
136.161	2686.38
136.141	2680.38
136.124	2674.49
136.103	2668.72
136.095	2663.01
136.084	2657.33
136.065	2651.71
136.044	2646.17
136.018	2640.78
136.022	2635.38
135.999	2630.03
135.995	2624.65
135.958	2619.41
135.947	2614.23
135.938	2609.08
135.935	2603.86
135.917	2598.62
135.879	2593.52
135.866	2588.51
135.837	2583.67
135.837	2578.86
135.824	2574.06
135.813	2569.24
135.774	2564.57
135.773	2559.91
135.748	2555.33
135.757	2550.64
135.729	2545.96
135.701	2541.38
135.688	2536.85
135.677	2532.32
135.682	2527.66
135.648	2523.02
135.632	2518.41
135.62	2513.78
135.604	2509.16
135.587	2504.55
135.56	2500.02
135.525	2495.7
135.531	2491.38
135.511	2487.1
135.5	2482.83
135.494	2478.48
135.461	2474.2
135.454	2469.91
135.426	2465.7
135.418	2461.49
135.392	2457.36
135.392	2453.18
135.368	2449.03
135.339	2444.98
135.336	2440.92
135.328	2436.79
135.307	2432.65
135.279	2428.59
135.268	2424.55
135.253	2420.52
135.252	2416.39
135.213	2412.36
135.21	2408.3
135.193	2404.24
135.192	2400.05
135.149	2395.98
135.131	2391.99
135.131	2387.96
135.124	2383.84
135.088	2379.8
135.076	2375.79
135.044	2371.91
135.056	2367.93
135.032	2363.95
135.014	2359.97
134.99	2356.05
134.954	2352.32
134.968	2348.52
134.946	2344.72
134.928	2340.93
134.908	2337.17
134.887	2333.48
134.885	2329.74
134.844	2326.14
134.837	2322.56
134.823	2319.01
134.823	2315.36
134.797	2311.7
134.783	2308.03
134.751	2304.44
134.719	2301.04
134.709	2297.74
134.696	2294.49
134.694	2291.18
134.657	2287.98
134.648	2284.8
134.637	2281.6
134.639	2278.26
134.613	2274.88
134.589	2271.51
134.57	2268.17
134.538	2264.96
134.516	2261.88
134.522	2258.75
134.5	2255.63
134.462	2252.66
134.458	2249.71
134.45	2246.72
134.436	2243.69
134.404	2240.73
134.389	2237.81
134.39	2234.8
134.364	2231.78
134.341	2228.8
134.327	2225.82
134.298	2222.95
134.274	2220.19
134.266	2217.48
134.253	2214.76
134.228	2212.1
134.203	2209.54
134.203	2206.95
134.193	2204.27
134.158	2201.67
134.138	2199.12
134.104	2196.75
134.102	2194.4
134.077	2192.13
134.073	2189.83
134.031	2187.68
134.018	2185.6
134.014	2183.51
134.007	2181.32
133.969	2179.2
133.933	2177.26
133.909	2175.5
133.898	2173.84
133.901	2172.11
133.887	2170.31
133.853	2168.56
133.855	2166.7
133.837	2164.76
133.79	2162.97
133.79	2161.15
133.756	2159.42
133.769	2157.56
133.728	2155.76
133.711	2153.99
133.671	2152.4
133.667	2150.86
133.666	2149.24
133.645	2147.57
133.605	2146.03
133.588	2144.57
133.551	2143.31
133.54	2142.15
133.542	2140.93
133.518	2139.71
133.477	2138.65
133.477	2137.57
133.475	2136.37
133.455	2135.09
133.42	2133.86
133.396	2132.7
133.377	2131.6
133.386	2130.35
133.343	2129.17
133.327	2128.01
133.29	2127
133.28	2126.04
133.281	2125
133.251	2123.96
133.228	2122.97
133.228	2121.87
133.217	2120.65
133.202	2119.3
133.162	2118
133.147	2116.72
133.145	2115.34
133.138	2113.79
133.103	2112.25
133.07	2110.81
133.073	2109.29
133.043	2107.81
133.017	2106.41
133	2105.06
132.983	2103.76
132.962	2102.5
132.97	2101.1
132.958	2099.56
132.917	2098.06
132.896	2096.62
132.862	2095.32
132.854	2094.08
132.855	2092.75
132.829	2091.41
132.801	2090.14
132.775	2088.96
132.754	2087.89
132.769	2086.66
132.744	2085.37
132.711	2084.14
132.691	2082.96
132.675	2081.81
132.666	2080.62
132.657	2079.33
132.627	2078.06
132.6	2076.86
132.58	2075.73
132.582	2074.51
132.577	2073.15
132.541	2071.79
132.528	2070.4
132.519	2068.94
132.496	2067.44
132.48	2065.91
132.462	2064.36
132.437	2062.83
132.417	2061.36
132.415	2059.8
132.393	2058.23
132.376	2056.64
132.352	2055.07
132.334	2053.54
132.311	2052.08
132.293	2050.67
132.282	2049.26
132.271	2047.81
132.269	2046.22
132.26	2044.46
132.206	2042.83
132.21	2041.15
132.181	2039.51
132.17	2037.87
132.17	2036.1
132.149	2034.26
132.122	2032.43
132.094	2030.7
132.084	2028.98
132.081	2027.19
132.074	2025.28
132.038	2023.4
132.018	2021.57
131.998	2019.8
131.978	2018.1
131.976	2016.36
131.959	2014.59
131.939	2012.82
131.904	2011.17
131.915	2009.43
131.89	2007.67
131.86	2006
131.842	2004.4
131.833	2002.79
131.788	2001.39
131.788	2000.03
131.78	1998.64
131.763	1997.24
131.728	1995.94
131.736	1994.55
131.717	1993.12
131.702	1991.62
131.669	1990.19
131.647	1988.85
131.638	1987.51
131.638	1986.07
131.604	1984.66
131.586	1983.29
131.56	1982.02
131.579	1980.55
131.538	1979.13
131.512	1977.78
131.512	1976.39
131.461	1975.19
131.455	1974.07
131.449	1972.94
131.431	1971.81
131.406	1970.74
131.384	1969.75
131.387	1968.67
131.349	1967.68
131.332	1966.75
131.324	1965.81
131.29	1964.97
131.282	1964.14
131.25	1963.44
131.258	1962.65
131.222	1961.92
131.198	1961.3
131.198	1960.62
131.176	1959.94
131.161	1959.24
131.145	1958.51
131.114	1957.86
131.096	1957.26
131.094	1956.6
131.07	1955.95
131.041	1955.37
131.031	1954.79
131.013	1954.22
131.014	1953.53
130.979	1952.87
130.961	1952.23
130.948	1951.58
130.924	1950.97
130.915	1950.32
130.893	1949.69
130.875	1949.08
130.859	1948.46
130.852	1947.77
130.828	1947.07
130.809	1946.37
130.79	1945.69
130.769	1945.04
130.746	1944.45
130.733	1943.89
130.723	1943.3
130.706	1942.68
130.672	1942.16
130.679	1941.55
130.662	1940.86
130.644	1940.12
130.605	1939.49
130.586	1938.95
130.558	1938.57
130.572	1938.08
130.546	1937.58
130.532	1937.05
130.505	1936.56
130.489	1936.08
130.463	1935.68
130.459	1935.25
130.443	1934.79
130.427	1934.29
130.398	1933.85
130.375	1933.49
130.389	1932.97
130.35	1932.49
130.346	1931.94
130.331	1931.32
130.304	1930.71
130.292	1930.08
130.28	1929.4
130.287	1928.5
130.23	1927.72
130.226	1926.94
130.22	1926.08
130.205	1925.15
130.167	1924.32
130.166	1923.45
130.144	1922.6
130.152	1921.58
130.119	1920.55
130.097	1919.55
130.075	1918.61
130.06	1917.7
130.034	1916.9
130.028	1916.1
130.012	1915.29
129.999	1914.47
129.965	1913.75
129.958	1913.04
129.953	1912.26
129.939	1911.42
129.922	1910.52
129.901	1909.62
129.884	1908.71
129.848	1907.94
129.833	1907.27
129.834	1906.54
129.82	1905.76
129.785	1905.08
129.773	1904.43
129.761	1903.78
129.762	1903.01
129.739	1902.19
129.719	1901.36
129.701	1900.52
129.675	1899.76
129.674	1898.94
129.654	1898.1
129.637	1897.24
129.61	1896.47
129.599	1895.7
129.595	1894.86
129.583	1893.94
129.564	1892.98
129.533	1892.08
129.534	1891.12
129.51	1890.16
129.509	1889.09
129.469	1888.11
129.47	1887.08
129.447	1886.07
129.414	1885.19
129.447	1884.06
129.408	1882.92
129.397	1881.72
129.382	1880.47
129.345	1879.33
129.329	1878.29
129.301	1877.4
129.314	1876.43
129.285	1875.5
129.262	1874.64
129.251	1873.82
129.261	1872.84
129.222	1871.89
129.221	1870.87
129.192	1869.89
129.187	1868.86
129.145	1867.97
129.136	1867.15
129.15	1866.18
129.131	1865.12
129.099	1864.1
129.084	1863.1
129.074	1862.08
129.071	1860.96
129.034	1859.91
129.015	1858.93
128.989	1858.09
129.009	1857.1
128.993	1856.01
128.958	1854.98
128.945	1853.96
128.912	1853.08
128.894	1852.33
128.903	1851.5
128.884	1850.65
128.858	1849.85
128.843	1849.08
128.81	1848.46
128.786	1848.02
128.786	1847.6
128.776	1847.16
128.762	1846.69
128.733	1846.29
128.722	1845.92
128.701	1845.59
128.71	1845.13
128.677	1844.68
128.653	1844.3
128.641	1843.94
128.616	1843.65
128.602	1843.42
128.575	1843.29
128.577	1843.13
128.562	1842.94
128.545	1842.72
128.534	1842.45
128.521	1842.11
128.516	1841.63
128.479	1841.21
128.473	1840.74
128.451	1840.29
128.45	1839.73
128.428	1839.16
128.398	1838.66
128.389	1838.16
128.356	1837.81
128.35	1837.48
128.347	1837.1
128.325	1836.71
128.298	1836.4
128.277	1836.18
128.284	1835.86
128.262	1835.53
128.242	1835.2
128.224	1834.89
128.201	1834.65
128.183	1834.48
128.162	1834.4
128.159	1834.3
128.139	1834.2
128.121	1834.14
128.099	1834.13
128.081	1834.18
128.075	1834.21
128.075	1834.11
128.041	1834.03
128.035	1833.9
128.017	1833.75
128.017	1833.45
127.996	1833.09
127.97	1832.74
127.955	1832.4
127.941	1832.04
127.933	1831.63
127.911	1831.22
127.892	1830.84
127.89	1830.38
127.863	1829.94
127.84	1829.57
127.833	1829.18
127.828	1828.72
127.788	1828.37
127.792	1827.98
127.779	1827.52
127.746	1827.15
127.765	1826.59
127.735	1826
127.723	1825.37
127.71	1824.68
127.684	1824.01
127.661	1823.43
127.65	1822.88
127.649	1822.26
127.641	1821.53
127.608	1820.85
127.601	1820.15
127.578	1819.48
127.587	1818.68
127.575	1817.76
127.539	1816.88
127.525	1816.03
127.513	1815.19
127.476	1814.51
127.507	1813.63
127.475	1812.73
127.469	1811.74
127.448	1810.75
127.425	1809.79
127.414	1808.84
127.393	1807.94
127.39	1807.01
127.378	1806.03
127.349	1805.11
127.332	1804.27
127.307	1803.55
127.296	1802.91
127.287	1802.29
127.264	1801.75
127.274	1801.1
127.261	1800.35
127.23	1799.64
127.223	1798.9
127.225	1798.02
127.204	1797.09
127.193	1796.08
127.157	1795.17
127.155	1794.25
127.144	1793.29
127.108	1792.46
127.106	1791.64
127.102	1790.77
127.085	1789.86
127.083	1788.86
127.043	1787.95
127.031	1787.1
127.03	1786.2
127.021	1785.23
127.014	1784.15
126.981	1783.13
126.96	1782.19
126.973	1781.13
126.952	1780.02
126.918	1779.02
126.91	1778.05
126.894	1777.12
126.877	1776.26
126.895	1775.21
126.856	1774.21
126.851	1773.16
126.833	1772.12
126.797	1771.24
126.794	1770.39
126.771	1769.65
126.783	1768.8
126.764	1767.91
126.734	1767.09
126.732	1766.25
126.701	1765.51
126.706	1764.7
126.671	1764
126.665	1763.33
126.648	1762.69
126.627	1762.13
126.612	1761.63
126.611	1761.1
126.594	1760.56
126.588	1759.96
126.548	1759.48
126.538	1759.07
126.547	1758.55
126.535	1757.93
126.499	1757.38
126.487	1756.87
126.471	1756.41
126.463	1755.93
126.425	1755.61
126.424	1755.31
126.425	1754.94
126.404	1754.55
126.378	1754.22
126.354	1754.01
126.347	1753.85
126.353	1753.57
126.335	1753.23
126.299	1752.99
126.285	1752.83
126.278	1752.66
126.282	1752.38
126.277	1751.92
126.229	1751.59
126.226	1751.25
126.212	1750.91
126.176	1750.71
126.164	1750.62
126.168	1750.47
126.157	1750.26
126.145	1749.99
126.126	1749.71
126.106	1749.44
126.072	1749.33
126.094	1749.09
126.055	1748.92
126.054	1748.7
126.03	1748.52
126.029	1748.28
126.015	1747.98
125.996	1747.67
125.965	1747.46
125.963	1747.25
125.939	1747.11
125.927	1746.99
125.925	1746.83
125.913	1746.61
125.902	1746.31
125.881	1746.01
125.858	1745.76
125.849	1745.51
125.845	1745.19
125.804	1745.01
125.805	1744.83
125.802	1744.56
125.787	1744.25
125.774	1743.89
125.745	1743.59
125.742	1743.26
125.742	1742.81
125.719	1742.33
125.688	1741.95
125.671	1741.66
125.657	1741.43
125.677	1741.03
125.655	1740.55
125.63	1740.09
125.617	1739.64
125.596	1739.23
125.571	1738.95
125.564	1738.71
125.567	1738.38
125.554	1737.99
125.539	1737.56
125.535	1737.01
125.5	1736.54
125.492	1736.07
125.481	1735.6
125.449	1735.24
125.456	1734.83
125.439	1734.41
125.424	1733.98
125.414	1733.53
125.405	1733.02
125.405	1732.38
125.388	1731.65
125.364	1730.93
125.348	1730.23
125.343	1729.5
125.306	1728.89
125.305	1728.3
125.304	1727.65
125.29	1726.94
125.269	1726.26
125.275	1725.45
125.242	1724.69
125.219	1724.03
125.239	1723.21
125.218	1722.34
125.18	1721.59
125.173	1720.89
125.166	1720.2
125.14	1719.6
125.126	1719.07
125.117	1718.58
125.099	1718.15
125.104	1717.64
125.093	1717.05
125.086	1716.37
125.062	1715.67
125.049	1714.97
125.031	1714.3
125.031	1713.56
125.017	1712.77
125.006	1711.93
124.982	1711.12
124.975	1710.3
124.969	1709.42
124.931	1708.68
124.95	1707.81
124.923	1706.96
124.907	1706.13
124.903	1705.26
124.869	1704.51
124.868	1703.76
124.857	1703.02
124.85	1702.22
124.846	1701.34
124.822	1700.46
124.789	1699.73
124.782	1699.07
124.762	1698.52
124.78	1697.84
124.744	1697.23
124.736	1696.63
124.733	1695.97
124.716	1695.3
124.679	1694.79
124.681	1694.28
124.678	1693.72
124.657	1693.18
124.653	1692.59
124.614	1692.14
124.603	1691.79
124.593	1691.49
124.595	1691.13
124.558	1690.9
124.556	1690.67
124.541	1690.48
124.524	1690.33
124.516	1690.19
124.494	1690.1
124.493	1689.97
124.486	1689.77
124.469	1689.54
124.448	1689.34
124.471	1688.9
124.43	1688.48
124.429	1687.99
124.371	1687.75
124.369	1687.63
124.366	1687.53
124.348	1687.49
124.344	1687.43
124.346	1687.25
124.307	1687.15
124.305	1687.04
124.283	1686.98
124.283	1686.86
124.26	1686.76
124.242	1686.73
124.243	1686.63
124.236	1686.45
124.222	1686.2
124.197	1685.99
124.18	1685.83
124.164	1685.73
124.14	1685.75
124.159	1685.64
124.133	1685.53
124.117	1685.43
124.096	1685.39
124.082	1685.41
124.074	1685.44
124.054	1685.52
124.054	1685.55
124.037	1685.57
124.032	1685.53
124	1685.56
124.011	1685.48
123.979	1685.45
123.97	1685.43
123.968	1685.34
123.967	1685.11
123.922	1684.99
123.921	1684.87
123.906	1684.76
123.903	1684.6
123.894	1684.37
123.874	1684.14
123.854	1683.95
123.846	1683.75
123.828	1683.6
123.805	1683.55
123.804	1683.49
123.802	1683.35
123.791	1683.13
123.772	1682.91
123.74	1682.81
123.732	1682.77
123.728	1682.7
123.705	1682.7
123.715	1682.59
123.715	1682.31
123.685	1682
123.657	1681.79
123.654	1681.58
123.653	1681.29
123.605	1681.19
123.613	1681.08
123.615	1680.87
123.596	1680.63
123.591	1680.3
123.578	1679.92
123.55	1679.6
123.53	1679.37
123.526	1679.16
123.494	1679.11
123.521	1678.89
123.503	1678.6
123.478	1678.32
123.47	1678.03
123.45	1677.78
123.426	1677.64
123.428	1677.49
123.422	1677.28
123.414	1676.99
123.402	1676.65
123.385	1676.3
123.362	1676
123.35	1675.75
123.362	1675.35
123.346	1674.88
123.317	1674.47
123.301	1674.12
123.3	1673.75
123.285	1673.38
123.276	1672.99
123.234	1672.79
123.263	1672.45
123.248	1672.02
123.227	1671.59
123.216	1671.15
123.218	1670.6
123.213	1669.91
123.173	1669.31
123.174	1668.69
123.167	1668.02
123.16	1667.28
123.15	1666.47
123.121	1665.73
123.108	1665.05
123.092	1664.46
123.088	1663.86
123.084	1663.23
123.082	1662.49
123.059	1661.75
123.042	1661.04
123.03	1660.37
123.019	1659.73
122.998	1659.16
123.027	1658.37
123.008	1657.47
122.981	1656.58
122.973	1655.68
122.965	1654.75
122.939	1653.89
122.921	1653.14
122.904	1652.51
122.907	1651.88
122.904	1651.19
122.883	1650.52
122.88	1649.8
122.855	1649.14
122.842	1648.55
122.844	1647.9
122.842	1647.16
122.821	1646.41
122.807	1645.66
122.8	1644.88
122.785	1644.11
122.756	1643.47
122.747	1642.91
122.768	1642.19
122.737	1641.48
122.725	1640.79
122.697	1640.23
122.696	1639.68
122.676	1639.22
122.663	1638.83
122.656	1638.47
122.637	1638.18
122.636	1637.88
122.621	1637.6
122.604	1637.35
122.599	1637.1
122.568	1636.98
122.557	1636.95
122.554	1636.92
122.557	1636.8
122.536	1636.67
122.519	1636.56
122.51	1636.45
122.489	1636.41
122.478	1636.4
122.483	1636.31
122.465	1636.2
122.453	1636.06
122.443	1635.9
122.415	1635.83
122.43	1635.64
122.386	1635.59
122.374	1635.64
122.368	1635.72
122.368	1635.75
122.359	1635.73
122.348	1635.65
122.332	1635.55
122.341	1635.29
122.304	1635.09
122.306	1634.83
122.292	1634.54
122.275	1634.27
122.246	1634.12
122.233	1634.09
122.217	1634.18
122.233	1634.16
122.18	1634.37
122.205	1634.47
122.18	1634.6
122.172	1634.72
122.164	1634.79
122.15	1634.85
122.153	1634.79
122.115	1634.82
122.115	1634.84
122.106	1634.83
122.081	1634.88
122.079	1634.92
122.055	1635.04
122.047	1635.18
122.026	1635.41
122.028	1635.62
122.031	1635.69
122.022	1635.66
121.981	1635.73
121.983	1635.79
121.965	1635.89
121.95	1636.03
121.94	1636.2
121.925	1636.41
121.926	1636.56
121.916	1636.66
121.904	1636.71
121.897	1636.69
121.87	1636.72
121.88	1636.64
121.848	1636.62
121.852	1636.53
121.849	1636.33
121.836	1636.05
121.803	1635.87
121.802	1635.67
121.797	1635.43
121.795	1635.09
121.783	1634.67
121.776	1634.15
121.754	1633.65
121.742	1633.16
121.733	1632.66
121.712	1632.23
121.699	1631.87
121.684	1631.58
121.672	1631.37
121.669	1631.16
121.671	1630.85
121.661	1630.47
121.638	1630.11
121.614	1629.86
121.602	1629.7
121.597	1629.56
121.605	1629.31
121.582	1629.06
121.587	1628.69
121.57	1628.28
121.55	1627.88
121.536	1627.53
121.527	1627.2
121.512	1626.9
121.522	1626.49
121.485	1626.19
121.511	1625.69
121.479	1625.19
121.479	1624.62
121.465	1624.02
121.442	1623.48
121.437	1622.94
121.413	1622.49
121.405	1622.11
121.398	1621.74
121.396	1621.33
121.399	1620.79
121.369	1620.29
121.36	1619.8
121.358	1619.26
121.337	1618.76
121.336	1618.21
121.334	1617.57
121.32	1616.89
121.312	1616.15
121.3	1615.38
121.288	1614.59
121.274	1613.83
121.27	1613.03
121.274	1612.11
121.234	1611.3
121.233	1610.51
121.225	1609.72
121.22	1608.9
121.202	1608.11
121.199	1607.3
121.172	1606.58
121.149	1606.03
121.17	1605.39
121.147	1604.78
121.143	1604.14
121.138	1603.45
121.121	1602.76
121.102	1602.14
121.088	1601.59
121.083	1601.06
121.051	1600.7
121.045	1600.44
121.044	1600.19
121.039	1599.92
121.022	1599.67
121.016	1599.42
120.988	1599.28
120.981	1599.2
120.974	1599.14
120.972	1599.03
120.965	1598.86
120.958	1598.62
120.938	1598.39
120.92	1598.22
120.916	1598.04
120.892	1597.94
120.89	1597.85
120.898	1597.64
120.886	1597.35
120.86	1597.09
120.853	1596.84
120.84	1596.61
120.837	1596.33
120.813	1596.13
120.794	1596.03
120.795	1595.93
120.796	1595.76
120.783	1595.55
120.77	1595.32
120.746	1595.17
120.731	1595.1
120.728	1595.06
120.71	1595.08
120.712	1595.06
120.713	1594.93
120.682	1594.87
120.672	1594.84
120.661	1594.83
120.658	1594.8
120.642	1594.79
120.649	1594.67
120.612	1594.65
120.61	1594.64
120.604	1594.61
120.6	1594.52
120.602	1594.29
120.565	1594.13
120.54	1594.14
120.55	1594.12
120.55	1594.02
120.525	1593.96
120.527	1593.82
120.523	1593.59
120.489	1593.46
120.482	1593.37
120.465	1593.35
120.445	1593.46
120.444	1593.61
120.463	1593.57
120.423	1593.61
120.417	1593.66
120.409	1593.71
120.399	1593.75
120.376	1593.87
120.38	1593.95
120.39	1593.85
120.36	1593.76
120.338	1593.74
120.351	1593.62
120.334	1593.46
120.33	1593.23
120.309	1593.01
120.298	1592.81
120.275	1592.71
120.273	1592.63
120.28	1592.44
120.269	1592.19
120.242	1591.99
120.23	1591.84
120.222	1591.72
120.212	1591.63
120.212	1591.47
120.211	1591.22
120.169	1591.11
120.182	1590.94
120.171	1590.73
120.172	1590.42
120.148	1590.12
120.146	1589.77
120.129	1589.43
120.109	1589.17
120.104	1588.94
120.109	1588.62
120.104	1588.21
120.092	1587.73
120.086	1587.18
120.067	1586.64
120.044	1586.18
120.033	1585.81
120.029	1585.46
120.022	1585.11
120.024	1584.67
120.024	1584.12
120.022	1583.4
119.996	1582.68
119.969	1582.06
119.974	1581.43
119.958	1580.84
119.935	1580.37
119.921	1580.03
119.924	1579.69
119.921	1579.33
119.903	1578.99
119.906	1578.59
119.905	1578.09
119.887	1577.55
119.878	1576.99
119.858	1576.47
119.861	1575.9
119.86	1575.24
119.85	1574.51
119.841	1573.72
119.836	1572.85
119.824	1571.95
119.798	1571.13
119.785	1570.4
119.781	1569.72
119.751	1569.21
119.759	1568.71
119.774	1568.07
119.761	1567.33
119.732	1566.66
119.73	1565.98
119.729	1565.25
119.71	1564.54
119.709	1563.79
119.679	1563.15
119.67	1562.6
119.658	1562.14
119.672	1561.59
119.656	1561.01
119.651	1560.39
119.639	1559.76
119.621	1559.17
119.613	1558.6
119.598	1558.09
119.591	1557.61
119.588	1557.12
119.586	1556.57
119.587	1555.89
119.546	1555.35
119.547	1554.82
119.53	1554.37
119.53	1553.91
119.506	1553.55
119.503	1553.22
119.505	1552.85
119.488	1552.48
119.486	1552.08
119.487	1551.57
119.471	1551.02
119.45	1550.53
119.433	1550.13
119.427	1549.78
119.417	1549.47
119.41	1549.19
119.399	1548.93
119.379	1548.77
119.362	1548.74
119.359	1548.75
119.36	1548.73
119.36	1548.62
119.349	1548.45
119.332	1548.29
119.337	1548.01
119.306	1547.81
119.302	1547.62
119.3	1547.4
119.279	1547.22
119.283	1546.98
119.264	1546.77
119.244	1546.64
119.234	1546.59
119.218	1546.64
119.215	1546.72
119.214	1546.78
119.216	1546.72
119.198	1546.65
119.178	1546.63
119.168	1546.64
119.168	1546.62
119.16	1546.55
119.156	1546.42
119.157	1546.16
119.141	1545.85
119.127	1545.53
119.113	1545.22
119.111	1544.88
119.103	1544.5
119.074	1544.24
119.061	1544.09
119.055	1543.99
119.044	1543.96
119.032	1544.01
119.032	1544.03
119.03	1544
119.003	1544.05
119.012	1544.01
118.988	1544.03
118.982	1544.05
118.968	1544.11
118.958	1544.2
118.972	1544.15
118.928	1544.24
118.943	1544.25
118.934	1544.21
118.911	1544.22
118.906	1544.22
118.899	1544.22
118.893	1544.17
118.867	1544.23
118.87	1544.26
118.852	1544.34
118.843	1544.45
118.859	1544.41
118.845	1544.28
118.831	1544.12
118.805	1544.03
118.801	1543.97
118.805	1543.84
118.783	1543.74
118.759	1543.78
118.785	1543.67
118.771	1543.48
118.744	1543.36
118.744	1543.21
118.736	1543.04
118.735	1542.79
118.716	1542.55
118.721	1542.22
118.687	1541.98
118.713	1541.58
118.705	1541.05
118.681	1540.53
118.676	1539.97
118.668	1539.38
118.658	1538.78
118.65	1538.16
118.625	1537.66
118.623	1537.18
118.623	1536.67
118.623	1536.08
118.601	1535.52
118.61	1534.86
118.6	1534.13
118.582	1533.41
118.58	1532.66
118.559	1531.96
118.544	1531.35
118.54	1530.79
118.537	1530.22
118.505	1529.81
118.527	1529.32
118.522	1528.74
118.51	1528.11
118.5	1527.46
118.49	1526.8
118.488	1526.08
118.479	1525.33
118.446	1524.73
118.437	1524.24
118.459	1523.62
118.42	1523.13
118.431	1522.6
118.423	1522.03
118.423	1521.38
118.417	1520.64
118.384	1520.01
118.375	1519.47
118.365	1519
118.365	1518.53
118.378	1517.92
118.349	1517.35
118.361	1516.66
118.34	1515.96
118.313	1515.39
118.321	1514.8
118.313	1514.2
118.308	1513.57
118.291	1512.98
118.291	1512.35
118.292	1511.64
118.291	1510.81
118.249	1510.12
118.232	1509.6
118.252	1509.02
118.24	1508.42
118.231	1507.81
118.223	1507.2
118.197	1506.7
118.229	1506.01
118.19	1505.38
118.202	1504.67
118.167	1504.08
118.178	1503.44
118.164	1502.81
118.168	1502.11
118.141	1501.48
118.137	1500.88
118.115	1500.39
118.12	1499.9
118.103	1499.47
118.097	1499.07
118.065	1498.87
118.102	1498.5
118.074	1498.14
118.066	1497.78
118.052	1497.46
118.041	1497.2
118.035	1496.96
118.008	1496.86
118.005	1496.84
118.001	1496.84
117.985	1496.92
118.001	1496.88
117.977	1496.87
117.982	1496.77
117.948	1496.79
117.958	1496.75
117.941	1496.73
117.929	1496.76
117.921	1496.8
117.918	1496.83
117.918	1496.78
117.917	1496.61
117.918	1496.29
117.886	1496
117.878	1495.74
117.864	1495.53
117.858	1495.35
117.854	1495.16
117.821	1495.14
117.815	1495.23
117.806	1495.4
117.816	1495.52
117.806	1495.6
117.804	1495.61
117.78	1495.66
117.756	1495.85
117.758	1496.08
117.752	1496.31
117.741	1496.55
117.756	1496.65
117.743	1496.67
117.749	1496.51
117.728	1496.3
117.717	1496.06
117.707	1495.81
117.688	1495.62
117.678	1495.5
117.669	1495.42
117.657	1495.41
117.666	1495.33
117.667	1495.13
117.638	1494.98
117.629	1494.87
117.627	1494.75
117.615	1494.65
117.614	1494.51
117.598	1494.38
117.594	1494.25
117.579	1494.15
117.563	1494.13
117.594	1493.9
117.565	1493.65
117.539	1493.5
117.539	1493.37
117.541	1493.18
117.532	1492.96
117.531	1492.67
117.508	1492.41
117.494	1492.23
117.494	1492.05
117.478	1491.92
117.476	1491.78
117.448	1491.79
117.478	1491.63
117.474	1491.32
117.46	1490.93
117.439	1490.57
117.434	1490.2
117.422	1489.85
117.414	1489.51
117.413	1489.14
117.38	1488.91
117.377	1488.77
117.376	1488.65
117.378	1488.47
117.377	1488.19
117.362	1487.89
117.359	1487.53
117.359	1487.06
117.338	1486.61
117.326	1486.19
117.307	1485.88
117.308	1485.59
117.296	1485.35
117.313	1484.97
117.29	1484.59
117.29	1484.15
117.283	1483.67
117.251	1483.31
117.272	1482.85
117.254	1482.38
117.252	1481.87
117.236	1481.38
117.23	1480.89
117.225	1480.39
117.246	1479.68
117.227	1478.89
117.211	1478.08
117.202	1477.28
117.198	1476.45
117.189	1475.62
117.177	1474.82
117.177	1474
117.167	1473.17
117.155	1472.37
117.158	1471.53
117.129	1470.81
117.126	1470.14
117.147	1469.33
117.122	1468.54
117.11	1467.78
117.108	1467.01
117.091	1466.31
117.076	1465.71
117.064	1465.22
117.067	1464.75
117.064	1464.26
117.047	1463.83
117.045	1463.41
117.054	1462.88
117.041	1462.3
117.04	1461.63
117.013	1461.04
117.017	1460.42
116.999	1459.86
116.998	1459.29
116.997	1458.68
116.964	1458.22
116.979	1457.7
116.945	1457.35
116.942	1457.07
116.943	1456.81
116.941	1456.51
116.928	1456.23
116.929	1455.9
116.923	1455.52
116.917	1455.08
116.893	1454.73
116.875	1454.5
116.873	1454.32
116.862	1454.22
116.88	1454
116.856	1453.8
116.857	1453.55
116.818	1453.48
116.838	1453.36
116.83	1453.2
116.818	1453.04
116.808	1452.89
116.794	1452.79
116.779	1452.78
116.782	1452.78
116.775	1452.76
116.755	1452.82
116.752	1452.9
116.755	1452.92
116.75	1452.88
116.741	1452.8
116.73	1452.7
116.717	1452.63
116.713	1452.55
116.693	1452.55
116.685	1452.61
116.691	1452.62
116.685	1452.58
116.66	1452.62
116.67	1452.6
116.667	1452.49
116.641	1452.44
116.634	1452.44
116.616	1452.53
116.627	1452.57
116.629	1452.51
116.607	1452.46
116.604	1452.39
116.603	1452.25
116.591	1452.09
116.598	1451.81
116.567	1451.59
116.551	1451.49
116.547	1451.44
116.542	1451.42
116.534	1451.43
116.543	1451.34
116.504	1451.4
116.501	1451.53
116.491	1451.74
116.479	1452.03
116.495	1452.23
116.481	1452.41
116.479	1452.52
116.473	1452.55
116.448	1452.66
116.445	1452.77
116.44	1452.88
116.437	1452.95
116.427	1453
116.417	1453.05
116.415	1453.06
116.416	1452.97
116.399	1452.88
116.378	1452.88
116.389	1452.8
116.378	1452.7
116.371	1452.57
116.354	1452.49
116.349	1452.43
116.371	1452.17
116.328	1452.02
116.314	1451.98
116.354	1451.7
116.332	1451.35
116.313	1451.01
116.307	1450.66
116.3	1450.31
116.301	1449.91
116.294	1449.46
116.273	1449.07
116.293	1448.53
116.29	1447.85
116.29	1447.02
116.237	1446.39
116.234	1445.87
116.228	1445.45
116.23	1445.03
116.229	1444.59
116.232	1444.05
116.219	1443.49
116.212	1442.9
116.191	1442.4
116.184	1441.96
116.191	1441.47
116.191	1440.9
116.168	1440.38
116.164	1439.87
116.166	1439.31
116.169	1438.64
116.151	1437.97
116.149	1437.26
116.135	1436.57
116.12	1435.96
116.116	1435.38
116.11	1434.83
116.089	1434.4
116.103	1433.91
116.079	1433.5
116.065	1433.21
116.065	1432.96
116.087	1432.53
116.062	1432.11
116.057	1431.66
116.051	1431.19
116.054	1430.63
116.035	1430.08
116.023	1429.59
116.026	1429.06
116.001	1428.63
116.003	1428.22
116.008	1427.74
116.001	1427.22
116.001	1426.62
115.977	1426.07
115.976	1425.51
115.976	1424.92
115.976	1424.23
115.965	1423.51
115.946	1422.86
115.932	1422.29
115.926	1421.81
115.92	1421.37
115.912	1420.98
115.912	1420.59
115.89	1420.31
115.873	1420.17
115.875	1420.08
115.873	1420.01
115.869	1419.93
115.871	1419.76
115.858	1419.59
115.857	1419.35
115.851	1419.06
115.85	1418.69
115.825	1418.38
115.815	1418.13
115.799	1417.99
115.795	1417.93
115.79	1417.91
115.788	1417.89
115.801	1417.72
115.789	1417.48
115.787	1417.14
115.76	1416.86
115.766	1416.53
115.749	1416.25
115.749	1415.94
115.728	1415.73
115.747	1415.39
115.724	1415.08
115.694	1414.94
115.724	1414.68
115.71	1414.39
115.693	1414.14
115.684	1413.93
115.676	1413.76
115.673	1413.59
115.662	1413.46
115.661	1413.31
115.624	1413.36
115.66	1413.25
115.623	1413.25
115.644	1413.12
115.622	1413.01
115.617	1412.89
115.614	1412.73
115.6	1412.6
115.561	1412.71
115.58	1412.81
115.562	1413
115.556	1413.24
115.555	1413.49
115.536	1413.82
115.534	1414.17
115.537	1414.47
115.544	1414.63
115.543	1414.63
115.519	1414.63
115.501	1414.69
115.503	1414.74
115.492	1414.81
115.483	1414.9
115.486	1414.93
115.47	1414.99
115.453	1415.14
115.443	1415.37
115.434	1415.68
115.435	1415.99
115.434	1416.27
115.434	1416.47
115.433	1416.56
115.423	1416.6
115.421	1416.54
115.412	1416.42
115.406	1416.25
115.408	1415.97
115.371	1415.82
115.368	1415.74
115.361	1415.71
115.349	1415.76
115.369	1415.69
115.347	1415.63
115.347	1415.53
115.347	1415.35
115.341	1415.1
115.309	1414.98
115.322	1414.8
115.298	1414.72
115.297	1414.66
115.288	1414.64
115.283	1414.63
115.298	1414.48
115.306	1414.12
115.289	1413.66
115.25	1413.36
115.243	1413.17
115.244	1413.02
115.252	1412.8
115.22	1412.71
115.239	1412.53
115.234	1412.28
115.227	1411.97
115.218	1411.63
115.181	1411.49
115.181	1411.43
115.183	1411.4
115.21	1411.15
115.182	1410.89
115.183	1410.55
115.179	1410.14
115.167	1409.71
115.174	1409.17
115.157	1408.61
115.159	1407.99
115.148	1407.35
115.125	1406.81
115.124	1406.32
115.112	1405.9
115.119	1405.44
115.106	1405.02
115.116	1404.5
115.109	1403.91
115.112	1403.21
115.107	1402.41
115.09	1401.6
115.085	1400.79
115.057	1400.12
115.077	1399.38
115.049	1398.76
115.056	1398.12
115.042	1397.54
115.041	1396.96
115.037	1396.37
115.036	1395.74
115.007	1395.25
114.998	1394.87
114.997	1394.55
115.026	1394.03
114.998	1393.52
114.998	1392.97
114.997	1392.34
114.989	1391.68
114.976	1391.03
114.97	1390.4
114.974	1389.7
114.946	1389.11
114.934	1388.65
114.934	1388.24
114.921	1387.94
114.926	1387.63
114.936	1387.2
114.912	1386.82
114.912	1386.41
114.917	1385.92
114.874	1385.61
114.888	1385.3
114.894	1384.91
114.876	1384.55
114.864	1384.24
114.864	1383.94
114.864	1383.59
114.856	1383.22
114.844	1382.88
114.852	1382.46
114.825	1382.13
114.813	1381.89
114.811	1381.7
114.834	1381.36
114.81	1381.01
114.807	1380.64
114.8	1380.26
114.8	1379.82
114.8	1379.3
114.791	1378.73
114.766	1378.27
114.795	1377.62
114.75	1377.13
114.779	1376.49
114.732	1376.04
114.75	1375.56
114.729	1375.17
114.741	1374.72
114.729	1374.27
114.712	1373.9
114.722	1373.47
114.706	1373.07
114.691	1372.76
114.69	1372.48
114.691	1372.18
114.681	1371.89
114.673	1371.63
114.675	1371.32
114.667	1370.99
114.666	1370.62
114.636	1370.37
114.644	1370.12
114.621	1369.99
114.626	1369.87
114.617	1369.79
114.621	1369.66
114.604	1369.58
114.584	1369.61
114.605	1369.56
114.592	1369.48
114.6	1369.28
114.599	1368.95
114.566	1368.7
114.563	1368.5
114.56	1368.3
114.554	1368.11
114.538	1367.99
114.545	1367.84
114.532	1367.71
114.518	1367.65
114.505	1367.69
114.498	1367.81
114.496	1367.97
114.479	1368.24
114.475	1368.56
114.475	1368.89
114.476	1369.17
114.476	1369.37
114.475	1369.46
114.472	1369.43
114.447	1369.45
114.452	1369.42
114.432	1369.45
114.427	1369.5
114.422	1369.58
114.42	1369.64
114.414	1369.68
114.391	1369.83
114.379	1370.1
114.373	1370.45
114.405	1370.6
114.399	1370.6
114.374	1370.61
114.373	1370.58
114.37	1370.49
114.365	1370.36
114.356	1370.2
114.351	1370.01
114.339	1369.85
114.328	1369.74
114.344	1369.51
114.313	1369.37
114.306	1369.3
114.309	1369.23
114.311	1369.09
114.293	1368.99
114.287	1368.92
114.29	1368.8
114.29	1368.61
114.288	1368.33
114.289	1367.93
114.287	1367.4
114.278	1366.81
114.249	1366.32
114.248	1365.87
114.248	1365.42
114.248	1364.93
114.227	1364.52
114.244	1364.01
114.209	1363.64
114.236	1363.14
114.238	1362.5
114.186	1362.05
114.211	1361.55
114.184	1361.16
114.198	1360.71
114.18	1360.31
114.183	1359.89
114.187	1359.39
114.172	1358.88
114.163	1358.41
114.162	1357.91
114.161	1357.37
114.132	1356.96
114.136	1356.59
114.162	1356.02
114.16	1355.29
114.125	1354.63
114.122	1354.01
114.123	1353.36
114.117	1352.71
114.107	1352.09
114.113	1351.41
114.103	1350.72
114.099	1350.01
114.09	1349.31
114.072	1348.72
114.069	1348.18
114.073	1347.63
114.044	1347.23
114.045	1346.91
114.058	1346.52
114.062	1346.01
114.036	1345.56
114.039	1345.09
114.038	1344.56
114.035	1343.99
114.036	1343.33
114.026	1342.63
114.006	1342
113.998	1341.45
113.98	1341.05
113.992	1340.63
113.986	1340.23
113.98	1339.83
113.972	1339.45
113.974	1339.04
113.983	1338.5
113.972	1337.91
113.973	1337.22
113.967	1336.47
113.934	1335.86
113.932	1335.33
113.926	1334.87
113.934	1334.38
113.921	1333.92
113.91	1333.52
113.904	1333.18
113.897	1332.89
113.877	1332.74
113.87	1332.72
113.868	1332.76
113.87	1332.8
113.87	1332.81
113.864	1332.79
113.853	1332.79
113.859	1332.7
113.856	1332.55
113.845	1332.37
113.833	1332.21
113.82	1332.12
113.815	1332.07
113.799	1332.13
113.794	1332.27
113.791	1332.45
113.784	1332.67
113.782	1332.9
113.754	1333.29
113.751	1333.78
113.781	1334.08
113.772	1334.28
113.775	1334.32
113.744	1334.42
113.745	1334.49
113.74	1334.55
113.729	1334.63
113.721	1334.74
113.719	1334.84
113.718	1334.9
113.688	1335.1
113.696	1335.31
113.681	1335.59
113.701	1335.74
113.663	1336.02
113.656	1336.41
113.661	1336.79
113.656	1337.16
113.656	1337.49
113.667	1337.66
113.657	1337.74
113.653	1337.73
113.645	1337.65
113.623	1337.64
113.619	1337.66
113.619	1337.67
113.616	1337.65
113.617	1337.57
113.617	1337.4
113.614	1337.13
113.595	1336.88
113.567	1336.8
113.594	1336.62
113.579	1336.44
113.583	1336.19
113.578	1335.89
113.554	1335.67
113.552	1335.48
113.542	1335.36
113.55	1335.19
113.543	1335
113.538	1334.79
113.531	1334.57
113.533	1334.29
113.53	1333.95
113.533	1333.51
113.492	1333.23
113.493	1333.04
113.494	1332.86
113.492	1332.68
113.49	1332.47
113.487	1332.23
113.49	1331.89
113.477	1331.54
113.482	1331.11
113.444	1330.84
113.457	1330.56
113.448	1330.31
113.464	1329.93
113.434	1329.63
113.423	1329.42
113.427	1329.21
113.42	1329.03
113.431	1328.75
113.431	1328.36
113.407	1328.01
113.408	1327.65
113.408	1327.24
113.407	1326.77
113.406	1326.23
113.404	1325.6
113.403	1324.87
113.381	1324.19
113.363	1323.64
113.356	1323.19
113.404	1322.47
113.355	1321.85
113.346	1321.32
113.349	1320.82
113.35	1320.3
113.339	1319.8
113.344	1319.25
113.315	1318.84
113.344	1318.28
113.326	1317.71
113.323	1317.12
113.305	1316.61
113.305	1316.11
113.306	1315.59
113.301	1315.05
113.3	1314.48
113.291	1313.91
113.273	1313.43
113.279	1312.94
113.262	1312.53
113.248	1312.25
113.268	1311.89
113.244	1311.61
113.23	1311.44
113.242	1311.26
113.245	1311
113.218	1310.84
113.238	1310.58
113.224	1310.3
113.23	1309.92
113.221	1309.5
113.224	1308.99
113.212	1308.46
113.198	1307.96
113.2	1307.46
113.178	1307.05
113.182	1306.67
113.18	1306.29
113.164	1305.99
113.182	1305.58
113.163	1305.2
113.156	1304.84
113.174	1304.34
113.139	1303.96
113.155	1303.5
113.119	1303.21
113.138	1302.88
113.129	1302.56
113.111	1302.32
113.117	1302.08
113.102	1301.9
113.096	1301.78
113.104	1301.6
113.095	1301.43
113.095	1301.21
113.091	1300.95
113.095	1300.59
113.054	1300.41
113.052	1300.34
113.074	1300.16
113.059	1299.98
113.055	1299.79
113.043	1299.63
113.042	1299.47
113.036	1299.32
113.028	1299.19
113.032	1299.02
113.01	1298.93
113	1298.94
112.994	1299.02
112.99	1299.16
112.993	1299.29
112.994	1299.36
112.977	1299.47
112.971	1299.62
112.992	1299.6
112.979	1299.52
112.972	1299.39
112.969	1299.2
112.957	1299.02
112.952	1298.84
112.946	1298.67
112.929	1298.59
112.933	1298.51
112.928	1298.44
112.917	1298.42
112.912	1298.43
112.907	1298.47
112.895	1298.57
112.88	1298.79
112.914	1298.82
112.866	1299.02
112.869	1299.28
112.869	1299.55
112.865	1299.82
112.868	1300.03
112.87	1300.14
112.857	1300.22
112.853	1300.27
112.844	1300.33
112.846	1300.32
112.845	1300.25
112.825	1300.22
112.824	1300.2
112.808	1300.26
112.808	1300.34
112.809	1300.4
112.804	1300.44
112.803	1300.43
112.787	1300.46
112.806	1300.36
112.782	1300.28
112.804	1300.02
112.788	1299.71
112.783	1299.36
112.785	1298.91
112.774	1298.45
112.775	1297.92
112.754	1297.46
112.751	1297.04
112.746	1296.66
112.744	1296.28
112.743	1295.88
112.725	1295.56
112.743	1295.15
112.722	1294.78
112.737	1294.3
112.737	1293.7
112.733	1293.02
112.72	1292.32
112.711	1291.63
112.712	1290.92
112.704	1290.23
112.689	1289.61
112.68	1289.09
112.683	1288.6
112.679	1288.14
112.674	1287.68
112.669	1287.25
112.658	1286.88
112.658	1286.53
112.65	1286.2
112.657	1285.83
112.622	1285.63
112.657	1285.28
112.621	1285.05
112.638	1284.74
112.618	1284.5
112.609	1284.32
112.637	1283.97
112.624	1283.55
112.597	1283.23
112.597	1282.94
112.609	1282.58
112.6	1282.18
112.599	1281.72
112.603	1281.16
112.595	1280.56
112.589	1279.92
112.573	1279.33
112.563	1278.82
112.579	1278.24
112.561	1277.7
112.556	1277.18
112.558	1276.65
112.547	1276.15
112.558	1275.57
112.554	1274.92
112.55	1274.22
112.549	1273.46
112.548	1272.62
112.534	1271.8
112.537	1270.93
112.526	1270.08
112.526	1269.22
112.508	1268.44
112.506	1267.72
112.495	1267.09
112.492	1266.52
112.48	1266.06
112.49	1265.59
112.481	1265.14
112.475	1264.72
112.469	1264.33
112.47	1263.94
112.471	1263.5
112.447	1263.16
112.47	1262.71
112.471	1262.13
112.432	1261.7
112.443	1261.27
112.435	1260.86
112.432	1260.47
112.432	1260.06
112.429	1259.63
112.413	1259.26
112.412	1258.91
112.417	1258.52
112.388	1258.26
112.371	1258.19
112.384	1258.15
112.38	1258.14
112.369	1258.18
112.36	1258.31
112.356	1258.49
112.37	1258.57
112.362	1258.62
112.363	1258.58
112.37	1258.39
112.365	1258.09
112.352	1257.75
112.351	1257.36
112.343	1256.95
112.346	1256.46
112.323	1256.06
112.322	1255.69
112.299	1255.48
112.306	1255.31
112.33	1254.97
112.292	1254.75
112.284	1254.64
112.284	1254.57
112.284	1254.52
112.283	1254.46
112.283	1254.35
112.245	1254.44
112.246	1254.63
112.244	1254.88
112.246	1255.15
112.249	1255.37
112.246	1255.54
112.247	1255.62
112.233	1255.7
112.222	1255.82
112.228	1255.88
112.222	1255.91
112.219	1255.91
112.221	1255.83
112.195	1255.83
112.217	1255.72
112.179	1255.74
112.205	1255.65
112.199	1255.5
112.189	1255.32
112.181	1255.15
112.16	1255.09
112.175	1254.99
112.159	1254.95
112.168	1254.83
112.162	1254.69
112.154	1254.53
112.159	1254.3
112.133	1254.17
112.121	1254.16
112.118	1254.23
112.123	1254.31
112.109	1254.46
112.106	1254.64
112.125	1254.69
112.12	1254.63
112.124	1254.43
112.108	1254.2
112.11	1253.89
112.104	1253.54
112.103	1253.12
112.1	1252.64
112.095	1252.12
112.093	1251.55
112.086	1250.96
112.055	1250.56
112.07	1250.14
112.05	1249.85
112.047	1249.63
112.046	1249.46
112.043	1249.31
112.035	1249.21
112.032	1249.14
112.032	1249.05
112.034	1248.91
112.035	1248.69
112.033	1248.4
112.035	1247.99
111.994	1247.76
112.024	1247.41
112.005	1247.08
111.993	1246.82
111.997	1246.55
111.993	1246.28
111.992	1245.99
111.977	1245.75
111.98	1245.5
111.978	1245.23
111.977	1244.92
111.971	1244.6
111.97	1244.23
111.97	1243.81
111.946	1243.49
111.949	1243.18
111.954	1242.81
111.934	1242.53
111.93	1242.29
111.93	1242.07
111.958	1241.64
111.929	1241.22
111.911	1240.9
111.927	1240.52
111.928	1240.06
111.932	1239.47
111.922	1238.83
111.925	1238.1
111.92	1237.3
111.914	1236.47
111.912	1235.6
111.911	1234.69
111.911	1233.71
111.872	1232.93
111.879	1232.23
111.87	1231.63
111.878	1231.03
111.865	1230.5
111.857	1230.05
111.858	1229.63
111.85	1229.26
111.847	1228.93
111.847	1228.61
111.847	1228.26
111.858	1227.79
111.846	1227.27
111.847	1226.68
111.847	1226.01
111.846	1225.26
111.809	1224.67
111.832	1224.02
111.818	1223.4
111.808	1222.84
111.802	1222.35
111.804	1221.87
111.801	1221.4
111.787	1221.01
111.796	1220.58
111.793	1220.13
111.783	1219.7
111.759	1219.43
111.793	1219.01
111.774	1218.59
111.745	1218.33
111.742	1218.19
111.744	1218.11
111.769	1217.88
111.744	1217.67
111.742	1217.46
111.739	1217.24
111.74	1216.97
111.739	1216.65
111.734	1216.3
111.731	1215.9
111.722	1215.51
111.706	1215.2
111.705	1214.93
111.711	1214.63
111.688	1214.44
111.698	1214.24
111.681	1214.11
111.68	1214.03
111.68	1213.94
111.68	1213.84
111.68	1213.68
111.679	1213.46
111.672	1213.21
111.67	1212.92
111.666	1212.59
111.663	1212.24
111.647	1211.93
111.621	1211.82
111.62	1211.85
111.627	1211.9
111.614	1212.03
111.62	1212.16
111.618	1212.27
111.608	1212.4
111.605	1212.55
111.61	1212.63
111.592	1212.76
111.596	1212.86
111.607	1212.84
111.563	1212.99
111.577	1213.14
111.599	1213.12
111.599	1212.93
111.593	1212.63
111.581	1212.28
111.577	1211.89
111.559	1211.57
111.553	1211.31
111.545	1211.13
111.534	1211.06
111.533	1211.07
111.547	1211
111.534	1210.93
111.526	1210.9
111.517	1210.92
111.514	1210.98
111.504	1211.1
111.495	1211.31
111.496	1211.55
111.518	1211.62
111.478	1211.82
111.494	1211.97
111.495	1212.04
111.497	1212.01
111.493	1211.9
111.472	1211.83
111.482	1211.7
111.479	1211.51
111.482	1211.23
111.475	1210.89
111.474	1210.49
111.474	1210.01
111.46	1209.54
111.447	1209.14
111.443	1208.79
111.442	1208.47
111.433	1208.2
111.435	1207.94
111.42	1207.76
111.42	1207.61
111.419	1207.47
111.41	1207.37
111.41	1207.27
111.411	1207.14
111.41	1206.97
111.411	1206.73
111.409	1206.42
111.399	1206.1
111.408	1205.68
111.411	1205.14
111.39	1204.61
111.372	1204.2
111.395	1203.69
111.374	1203.23
111.381	1202.73
111.368	1202.27
111.362	1201.86
111.356	1201.49
111.364	1201.09
111.356	1200.68
111.348	1200.31
111.353	1199.89
111.337	1199.54
111.333	1199.23
111.331	1198.95
111.317	1198.76
111.314	1198.62
111.331	1198.4
111.349	1197.96
111.338	1197.39
111.3	1196.96
111.308	1196.55
111.308	1196.13
111.31	1195.67
111.31	1195.15
111.305	1194.6
111.287	1194.13
111.291	1193.65
111.301	1193.08
111.301	1192.42
111.296	1191.7
111.288	1190.96
111.292	1190.15
111.263	1189.47
111.273	1188.8
111.277	1188.08
111.289	1187.23
111.241	1186.58
111.245	1186.04
111.242	1185.57
111.238	1185.18
111.234	1184.84
111.229	1184.57
111.232	1184.3
111.224	1184.05
111.223	1183.81
111.225	1183.54
111.211	1183.32
111.226	1183
111.228	1182.57
111.227	1182.03
111.226	1181.39
111.186	1180.92
111.195	1180.49
111.187	1180.12
111.21	1179.63
111.181	1179.21
111.184	1178.81
111.18	1178.42
111.177	1178.04
111.18	1177.62
111.17	1177.21
111.166	1176.82
111.161	1176.45
111.158	1176.09
111.18	1175.56
111.166	1174.98
111.166	1174.32
111.123	1173.88
111.154	1173.37
111.145	1172.85
111.139	1172.34
111.139	1171.81
111.109	1171.46
111.123	1171.11
111.118	1170.79
111.107	1170.54
111.105	1170.34
111.113	1170.08
111.106	1169.82
111.082	1169.69
111.087	1169.6
111.079	1169.57
111.084	1169.53
111.065	1169.59
111.064	1169.7
111.064	1169.82
111.062	1169.95
111.055	1170.08
111.067	1170.13
111.061	1170.11
111.063	1170
111.062	1169.8
111.052	1169.57
111.018	1169.52
111.05	1169.36
111.053	1169.08
111.04	1168.75
111.036	1168.4
111.038	1167.99
111.003	1167.75
111.009	1167.56
111.002	1167.45
110.997	1167.41
110.998	1167.39
111.001	1167.34
110.992	1167.31
110.977	1167.37
110.976	1167.48
110.977	1167.58
110.993	1167.55
110.978	1167.49
110.978	1167.38
110.977	1167.21
110.979	1166.95
110.973	1166.64
110.967	1166.29
110.957	1165.97
110.954	1165.65
110.964	1165.25
110.937	1164.95
110.937	1164.69
110.935	1164.47
110.925	1164.32
110.924	1164.21
110.924	1164.1
110.919	1164
110.918	1163.9
110.917	1163.77
110.917	1163.59
110.903	1163.46
110.879	1163.49
110.878	1163.62
110.879	1163.81
110.879	1164.01
110.877	1164.2
110.877	1164.38
110.899	1164.35
110.895	1164.17
110.857	1164.1
110.877	1163.94
110.877	1163.7
110.867	1163.43
110.859	1163.17
110.868	1162.82
110.862	1162.42
110.85	1162.05
110.853	1161.65
110.86	1161.15
110.849	1160.64
110.835	1160.19
110.84	1159.72
110.82	1159.36
110.817	1159.07
110.819	1158.82
110.816	1158.58
110.816	1158.35
110.805	1158.15
110.808	1157.95
110.814	1157.68
110.809	1157.36
110.812	1156.96
110.798	1156.56
110.791	1156.2
110.793	1155.81
110.792	1155.4
110.79	1154.97
110.797	1154.43
110.791	1153.85
110.79	1153.21
110.789	1152.51
110.792	1151.72
110.751	1151.12
110.752	1150.64
110.771	1150.1
110.753	1149.63
110.764	1149.11
110.755	1148.6
110.755	1148.07
110.752	1147.52
110.734	1147.07
110.739	1146.62
110.741	1146.14
110.753	1145.54
110.727	1145.01
110.736	1144.43
110.726	1143.88
110.717	1143.38
110.737	1142.77
110.745	1141.99
110.733	1141.15
110.724	1140.3
110.718	1139.45
110.725	1138.55
110.69	1137.82
110.679	1137.3
110.691	1136.82
110.69	1136.38
110.691	1135.94
110.683	1135.53
110.679	1135.15
110.668	1134.85
110.677	1134.53
110.672	1134.21
110.669	1133.88
110.67	1133.51
110.668	1133.11
110.648	1132.79
110.668	1132.38
110.649	1132.01
110.646	1131.67
110.633	1131.41
110.63	1131.22
110.631	1131.06
110.63	1130.9
110.63	1130.72
110.63	1130.5
110.631	1130.21
110.631	1129.85
110.626	1129.45
110.627	1128.98
110.615	1128.51
110.611	1128.06
110.608	1127.62
110.606	1127.17
110.607	1126.69
110.597	1126.24
110.603	1125.74
110.579	1125.36
110.573	1125.08
110.575	1124.85
110.566	1124.7
110.561	1124.63
110.57	1124.53
110.555	1124.5
110.57	1124.38
110.548	1124.33
110.545	1124.32
110.537	1124.38
110.547	1124.4
110.547	1124.36
110.519	1124.44
110.546	1124.41
110.545	1124.27
110.543	1124.03
110.521	1123.85
110.509	1123.76
110.507	1123.73
110.51	1123.71
110.512	1123.65
110.503	1123.61
110.504	1123.55
110.494	1123.52
110.494	1123.48
110.489	1123.45
110.493	1123.38
110.486	1123.3
110.482	1123.2
110.486	1123.05
110.471	1122.93
110.465	1122.86
110.447	1122.92
110.445	1123.08
110.443	1123.31
110.446	1123.54
110.446	1123.74
110.445	1123.92
110.443	1124.05
110.443	1124.12
110.446	1124.1
110.443	1123.99
110.435	1123.86
110.436	1123.67
110.444	1123.35
110.426	1123.04
110.423	1122.73
110.43	1122.34
110.413	1121.98
110.425	1121.56
110.412	1121.14
110.4	1120.8
110.411	1120.41
110.396	1120.07
110.393	1119.77
110.384	1119.54
110.383	1119.35
110.372	1119.25
110.377	1119.17
110.386	1119.01
110.371	1118.87
110.385	1118.62
110.367	1118.4
110.365	1118.19
110.359	1117.99
110.372	1117.7
110.377	1117.27
110.358	1116.86
110.358	1116.43
110.36	1115.95
110.368	1115.35
110.367	1114.66
110.355	1113.95
110.322	1113.43
110.347	1112.86
110.345	1112.26
110.327	1111.75
110.32	1111.33
110.319	1110.96
110.322	1110.6
110.321	1110.24
110.323	1109.83
110.311	1109.46
110.322	1109.01
110.305	1108.6
110.296	1108.25
110.299	1107.93
110.302	1107.58
110.283	1107.33
110.299	1107.01
110.297	1106.63
110.295	1106.21
110.275	1105.86
110.292	1105.43
110.306	1104.82
110.299	1104.11
110.261	1103.55
110.261	1103.09
110.296	1102.44
110.26	1101.89
110.283	1101.23
110.286	1100.44
110.256	1099.76
110.259	1099.1
110.284	1098.27
110.257	1097.49
110.258	1096.71
110.257	1095.93
110.256	1095.13
110.238	1094.43
110.243	1093.75
110.245	1093.05
110.243	1092.35
110.236	1091.67
110.236	1090.99
110.235	1090.31
110.226	1089.66
110.234	1088.96
110.212	1088.37
110.209	1087.86
110.233	1087.23
110.233	1086.49
110.193	1085.93
110.185	1085.53
110.226	1084.97
110.178	1084.59
110.185	1084.28
110.183	1084.03
110.172	1083.88
110.173	1083.78
110.18	1083.66
110.194	1083.39
110.173	1083.15
110.173	1082.88
110.174	1082.58
110.184	1082.16
110.165	1081.76
110.165	1081.34
110.165	1080.9
110.153	1080.49
110.155	1080.09
110.142	1079.75
110.138	1079.48
110.131	1079.28
110.133	1079.11
110.124	1079
110.132	1078.87
110.132	1078.69
110.119	1078.56
110.11	1078.48
110.113	1078.42
110.11	1078.37
110.13	1078.16
110.08	1078.16
110.109	1078.08
110.111	1077.92
110.109	1077.68
110.107	1077.37
110.109	1076.97
110.105	1076.51
110.078	1076.17
110.09	1075.81
110.087	1075.44
110.079	1075.1
110.046	1075
110.067	1074.9
110.059	1074.85
110.057	1074.84
110.048	1074.89
110.044	1075
110.045	1075.12
110.056	1075.16
110.028	1075.3
110.032	1075.46
110.012	1075.76
110.049	1075.88
110.009	1076.12
110.008	1076.44
110.048	1076.51
110.007	1076.65
110.018	1076.75
110.008	1076.85
110.009	1076.92
110.012	1076.93
110.007	1076.9
109.984	1076.97
110.005	1076.96
110.001	1076.88

